#Spectra: 1
Emin______Emax       8.427000000000000E+02  8.827000000000000E+02
EminPole__EmaxPole   8.536400961814599E+02  8.738030705639193E+02
dE________Gamma      2.000000000000000E-02  1.000000000000000E-01
Energy               Re[0]                  Im[0]                
 8.427000000000E+02  1.665847021427376E-03  5.430359139569665E-05
 8.427200000000E+02  1.771314239149165E-03  5.490103630422798E-05
 8.427400000000E+02  1.873701050346503E-03  5.548774330766586E-05
 8.427600000000E+02  1.971266796007295E-03  5.605669838693693E-05
 8.427800000000E+02  2.062791901458808E-03  5.660297132144977E-05
 8.428000000000E+02  2.147596168073365E-03  5.712379292313517E-05
 8.428200000000E+02  2.225466935091282E-03  5.761826984244161E-05
 8.428400000000E+02  2.296543354330421E-03  5.808692233152422E-05
 8.428600000000E+02  2.361196195655104E-03  5.853120322074307E-05
 8.428800000000E+02  2.419926087436317E-03  5.895309021230054E-05
 8.429000000000E+02  2.473288129392025E-03  5.935478354882931E-05
 8.429200000000E+02  2.521841639945003E-03  5.973850426148100E-05
 8.429400000000E+02  2.566119915710894E-03  6.010637256739914E-05
 8.429600000000E+02  2.606614255938569E-03  6.046034343744616E-05
 8.429800000000E+02  2.643767355003039E-03  6.080217973533652E-05
 8.430000000000E+02  2.677972414108389E-03  6.113344831566995E-05
 8.430200000000E+02  2.709575471516931E-03  6.145552906154910E-05
 8.430400000000E+02  2.738879339539569E-03  6.176963040081910E-05
 8.430600000000E+02  2.766148163278873E-03  6.207680734992703E-05
 8.430800000000E+02  2.791612032041528E-03  6.237797980064822E-05
 8.431000000000E+02  2.815471338171865E-03  6.267394982225000E-05
 8.431200000000E+02  2.837900739000665E-03  6.296541739693078E-05
 8.431400000000E+02  2.859052671883582E-03  6.325299438462199E-05
 8.431600000000E+02  2.879060424798884E-03  6.353721672403756E-05
 8.431800000000E+02  2.898040792023972E-03  6.381855498567927E-05
 8.432000000000E+02  2.916096356422165E-03  6.409742344102808E-05
 8.432200000000E+02  2.933317443314278E-03  6.437418782627324E-05
 8.432400000000E+02  2.949783789721122E-03  6.464917197446308E-05
 8.432600000000E+02  2.965565969283354E-03  6.492266347627358E-05
 8.432800000000E+02  2.980726608750682E-03  6.519491851208598E-05
 8.433000000000E+02  2.995321427338617E-03  6.546616597985449E-05
 8.433200000000E+02  3.009400125874717E-03  6.573661102584659E-05
 8.433400000000E+02  3.023007148684536E-03  6.600643806954413E-05
 8.433600000000E+02  3.036182337667108E-03  6.627581340007288E-05
 8.433800000000E+02  3.048961494982502E-03  6.654488740948799E-05
 8.434000000000E+02  3.061376868188663E-03  6.681379651794683E-05
 8.434200000000E+02  3.073457569474385E-03  6.708266483709351E-05
 8.434400000000E+02  3.085229938790254E-03  6.735160561063560E-05
 8.434600000000E+02  3.096717859130706E-03  6.762072246491761E-05
 8.434800000000E+02  3.107943030922467E-03  6.789011049716192E-05
 8.435000000000E+02  3.118925211388815E-03  6.815985722468851E-05
 8.435200000000E+02  3.129682423850302E-03  6.843004341484654E-05
 8.435400000000E+02  3.140231141161815E-03  6.870074381233435E-05
 8.435600000000E+02  3.150586446848980E-03  6.897202777807379E-05
 8.435800000000E+02  3.160762176971863E-03  6.924395985166172E-05
 8.436000000000E+02  3.170771045295491E-03  6.951660024764762E-05
 8.436200000000E+02  3.180624753968857E-03  6.979000529437580E-05
 8.436400000000E+02  3.190334091595424E-03  7.006422782287741E-05
 8.436600000000E+02  3.199909020310108E-03  7.033931751220996E-05
 8.436800000000E+02  3.209358753249365E-03  7.061532119676316E-05
 8.437000000000E+02  3.218691823609151E-03  7.089228314025848E-05
 8.437200000000E+02  3.227916146320831E-03  7.117024528053838E-05
 8.437400000000E+02  3.237039073236626E-03  7.144924744867606E-05
 8.437600000000E+02  3.246067442596289E-03  7.172932756547371E-05
 8.437800000000E+02  3.255007623445903E-03  7.201052181799773E-05
 8.438000000000E+02  3.263865555591939E-03  7.229286481847656E-05
 8.438200000000E+02  3.272646785599193E-03  7.257638974756584E-05
 8.438400000000E+02  3.281356499277161E-03  7.286112848375034E-05
 8.438600000000E+02  3.289999551043326E-03  7.314711172041625E-05
 8.438800000000E+02  3.298580490504829E-03  7.343436907195189E-05
 8.439000000000E+02  3.307103586557693E-03  7.372292917005581E-05
 8.439200000000E+02  3.315572849267542E-03  7.401281975130706E-05
 8.439400000000E+02  3.323992049764077E-03  7.430406773690236E-05
 8.439600000000E+02  3.332364738354893E-03  7.459669930539312E-05
 8.439800000000E+02  3.340694261040027E-03  7.489073995912053E-05
 8.440000000000E+02  3.348983774588333E-03  7.518621458500467E-05
 8.440200000000E+02  3.357236260318616E-03  7.548314751023715E-05
 8.440400000000E+02  3.365454536712469E-03  7.578156255339251E-05
 8.440600000000E+02  3.373641270971863E-03  7.608148307139807E-05
 8.440800000000E+02  3.381798989622679E-03  7.638293200276160E-05
 8.441000000000E+02  3.389930088253776E-03  7.668593190742163E-05
 8.441200000000E+02  3.398036840472565E-03  7.699050500352646E-05
 8.441400000000E+02  3.406121406149174E-03  7.729667320143543E-05
 8.441600000000E+02  3.414185839013640E-03  7.760445813519768E-05
 8.441800000000E+02  3.422232093664776E-03  7.791388119173727E-05
 8.442000000000E+02  3.430262032042419E-03  7.822496353794845E-05
 8.442200000000E+02  3.438277429410571E-03  7.853772614589356E-05
 8.442400000000E+02  3.446279979893705E-03  7.885218981626639E-05
 8.442600000000E+02  3.454271301604446E-03  7.916837520027272E-05
 8.442800000000E+02  3.462252941397488E-03  7.948630282006987E-05
 8.443000000000E+02  3.470226379280885E-03  7.980599308788119E-05
 8.443200000000E+02  3.478193032513150E-03  8.012746632390850E-05
 8.443400000000E+02  3.486154259412040E-03  8.045074277313147E-05
 8.443600000000E+02  3.494111362898214E-03  8.077584262109945E-05
 8.443800000000E+02  3.502065593795131E-03  8.110278600878957E-05
 8.444000000000E+02  3.510018153904496E-03  8.143159304661594E-05
 8.444200000000E+02  3.517970198874856E-03  8.176228382765147E-05
 8.444400000000E+02  3.525922840879466E-03  8.209487844013520E-05
 8.444600000000E+02  3.533877151118016E-03  8.242939697931455E-05
 8.444800000000E+02  3.541834162155668E-03  8.276585955868397E-05
 8.445000000000E+02  3.549794870111503E-03  8.310428632066016E-05
 8.445200000000E+02  3.557760236707952E-03  8.344469744674707E-05
 8.445400000000E+02  3.565731191191033E-03  8.378711316722451E-05
 8.445600000000E+02  3.573708632131099E-03  8.413155377040258E-05
 8.445800000000E+02  3.581693429112766E-03  8.447803961147408E-05
 8.446000000000E+02  3.589686424321750E-03  8.482659112099713E-05
 8.446200000000E+02  3.597688434036151E-03  8.517722881303979E-05
 8.446400000000E+02  3.605700250028731E-03  8.552997329300880E-05
 8.446600000000E+02  3.613722640886533E-03  8.588484526519233E-05
 8.446800000000E+02  3.621756353253454E-03  8.624186554003455E-05
 8.447000000000E+02  3.629802113000928E-03  8.660105504117174E-05
 8.447200000000E+02  3.637860626331985E-03  8.696243481223678E-05
 8.447400000000E+02  3.645932580822584E-03  8.732602602346607E-05
 8.447600000000E+02  3.654018646404909E-03  8.769184997810974E-05
 8.447800000000E+02  3.662119476296242E-03  8.805992811867467E-05
 8.448000000000E+02  3.670235707876800E-03  8.843028203300556E-05
 8.448200000000E+02  3.678367963520273E-03  8.880293346022290E-05
 8.448400000000E+02  3.686516851379667E-03  8.917790429652773E-05
 8.448600000000E+02  3.694682966131606E-03  8.955521660088727E-05
 8.448800000000E+02  3.702866889681495E-03  8.993489260060894E-05
 8.449000000000E+02  3.711069191832307E-03  9.031695469681929E-05
 8.449200000000E+02  3.719290430918788E-03  9.070142546985069E-05
 8.449400000000E+02  3.727531154409789E-03  9.108832768454857E-05
 8.449600000000E+02  3.735791899480131E-03  9.147768429550885E-05
 8.449800000000E+02  3.744073193554280E-03  9.186951845224927E-05
 8.450000000000E+02  3.752375554823240E-03  9.226385350432586E-05
 8.450200000000E+02  3.760699492736488E-03  9.266071300640200E-05
 8.450400000000E+02  3.769045508470299E-03  9.306012072327371E-05
 8.450600000000E+02  3.777414095373876E-03  9.346210063485766E-05
 8.450800000000E+02  3.785805739394583E-03  9.386667694115465E-05
 8.451000000000E+02  3.794220919483653E-03  9.427387406718206E-05
 8.451200000000E+02  3.802660107983198E-03  9.468371666789277E-05
 8.451400000000E+02  3.811123770995884E-03  9.509622963307957E-05
 8.451600000000E+02  3.819612368738159E-03  9.551143809226785E-05
 8.451800000000E+02  3.828126355877825E-03  9.592936741960935E-05
 8.452000000000E+02  3.836666181857153E-03  9.635004323877081E-05
 8.452200000000E+02  3.845232291202047E-03  9.677349142783247E-05
 8.452400000000E+02  3.853825123818170E-03  9.719973812419119E-05
 8.452600000000E+02  3.862445115274815E-03  9.762880972947911E-05
 8.452800000000E+02  3.871092697077081E-03  9.806073291449811E-05
 8.453000000000E+02  3.879768296926970E-03  9.849553462417152E-05
 8.453200000000E+02  3.888472338974338E-03  9.893324208252666E-05
 8.453400000000E+02  3.897205244057671E-03  9.937388279769512E-05
 8.453600000000E+02  3.905967429935845E-03  9.981748456695099E-05
 8.453800000000E+02  3.914759311510889E-03  1.002640754817794E-04
 8.454000000000E+02  3.923581301042598E-03  1.007136839329814E-04
 8.454200000000E+02  3.932433808355131E-03  1.011663386158199E-04
 8.454400000000E+02  3.941317241036229E-03  1.016220685352075E-04
 8.454600000000E+02  3.950232004629350E-03  1.020809030109405E-04
 8.454800000000E+02  3.959178502819064E-03  1.025428716829805E-04
 8.455000000000E+02  3.968157137610322E-03  1.030080045167885E-04
 8.455200000000E+02  3.977168309501506E-03  1.034763318087118E-04
 8.455400000000E+02  3.986212417651963E-03  1.039478841914266E-04
 8.455600000000E+02  3.995289860043969E-03  1.044226926394451E-04
 8.455800000000E+02  4.004401033639986E-03  1.049007884746765E-04
 8.456000000000E+02  4.013546334534570E-03  1.053822033720601E-04
 8.456200000000E+02  4.022726158102264E-03  1.058669693652615E-04
 8.456400000000E+02  4.031940899140780E-03  1.063551188524404E-04
 8.456600000000E+02  4.041190952010287E-03  1.068466846020879E-04
 8.456800000000E+02  4.050476710768690E-03  1.073416997589441E-04
 8.457000000000E+02  4.059798569303408E-03  1.078401978499865E-04
 8.457200000000E+02  4.069156921459544E-03  1.083422127905054E-04
 8.457400000000E+02  4.078552161164887E-03  1.088477788902555E-04
 8.457600000000E+02  4.087984682551666E-03  1.093569308596972E-04
 8.457800000000E+02  4.097454880075609E-03  1.098697038163232E-04
 8.458000000000E+02  4.106963148631960E-03  1.103861332910771E-04
 8.458200000000E+02  4.116509883668992E-03  1.109062552348628E-04
 8.458400000000E+02  4.126095481299193E-03  1.114301060251509E-04
 8.458600000000E+02  4.135720338407900E-03  1.119577224726833E-04
 8.458800000000E+02  4.145384852759794E-03  1.124891418282785E-04
 8.459000000000E+02  4.155089423103457E-03  1.130244017897382E-04
 8.459200000000E+02  4.164834449273833E-03  1.135635405088638E-04
 8.459400000000E+02  4.174620332292887E-03  1.141065965985790E-04
 8.459600000000E+02  4.184447474468627E-03  1.146536091401637E-04
 8.459800000000E+02  4.194316279492427E-03  1.152046176906066E-04
 8.460000000000E+02  4.204227152534836E-03  1.157596622900676E-04
 8.460200000000E+02  4.214180500340116E-03  1.163187834694685E-04
 8.460400000000E+02  4.224176731319207E-03  1.168820222582013E-04
 8.460600000000E+02  4.234216255641768E-03  1.174494201919631E-04
 8.460800000000E+02  4.244299485326814E-03  1.180210193207228E-04
 8.461000000000E+02  4.254426834332476E-03  1.185968622168177E-04
 8.461200000000E+02  4.264598718644610E-03  1.191769919831842E-04
 8.461400000000E+02  4.274815556364819E-03  1.197614522617307E-04
 8.461600000000E+02  4.285077767797299E-03  1.203502872418473E-04
 8.461800000000E+02  4.295385775535041E-03  1.209435416690644E-04
 8.462000000000E+02  4.305740004545632E-03  1.215412608538557E-04
 8.462200000000E+02  4.316140882255917E-03  1.221434906805983E-04
 8.462400000000E+02  4.326588838636558E-03  1.227502776166780E-04
 8.462600000000E+02  4.337084306286019E-03  1.233616687217667E-04
 8.462800000000E+02  4.347627720513871E-03  1.239777116572497E-04
 8.463000000000E+02  4.358219519424119E-03  1.245984546958232E-04
 8.463200000000E+02  4.368860143997898E-03  1.252239467312642E-04
 8.463400000000E+02  4.379550038176029E-03  1.258542372883712E-04
 8.463600000000E+02  4.390289648941556E-03  1.264893765330805E-04
 8.463800000000E+02  4.401079426401745E-03  1.271294152827658E-04
 8.464000000000E+02  4.411919823870380E-03  1.277744050167226E-04
 8.464200000000E+02  4.422811297949865E-03  1.284243978868448E-04
 8.464400000000E+02  4.433754308613281E-03  1.290794467284869E-04
 8.464600000000E+02  4.444749319286444E-03  1.297396050715341E-04
 8.464800000000E+02  4.455796796930445E-03  1.304049271516708E-04
 8.465000000000E+02  4.466897212123710E-03  1.310754679218521E-04
 8.465200000000E+02  4.478051039144964E-03  1.317512830639927E-04
 8.465400000000E+02  4.489258756055786E-03  1.324324290008721E-04
 8.465600000000E+02  4.500520844783916E-03  1.331189629082540E-04
 8.465800000000E+02  4.511837791206669E-03  1.338109427272420E-04
 8.466000000000E+02  4.523210085234720E-03  1.345084271768596E-04
 8.466200000000E+02  4.534638220896403E-03  1.352114757668683E-04
 8.466400000000E+02  4.546122696422379E-03  1.359201488108282E-04
 8.466600000000E+02  4.557664014330837E-03  1.366345074394073E-04
 8.466800000000E+02  4.569262681513190E-03  1.373546136139383E-04
 8.467000000000E+02  4.580919209320388E-03  1.380805301402433E-04
 8.467200000000E+02  4.592634113649846E-03  1.388123206827118E-04
 8.467400000000E+02  4.604407915032972E-03  1.395500497786590E-04
 8.467600000000E+02  4.616241138723474E-03  1.402937828529528E-04
 8.467800000000E+02  4.628134314786368E-03  1.410435862329315E-04
 8.468000000000E+02  4.640087978187699E-03  1.417995271636049E-04
 8.468200000000E+02  4.652102668885077E-03  1.425616738231517E-04
 8.468400000000E+02  4.664178931919299E-03  1.433300953387237E-04
 8.468600000000E+02  4.676317317506467E-03  1.441048618025546E-04
 8.468800000000E+02  4.688518381131354E-03  1.448860442883916E-04
 8.469000000000E+02  4.700782683641644E-03  1.456737148682442E-04
 8.469200000000E+02  4.713110791343058E-03  1.464679466294711E-04
 8.469400000000E+02  4.725503276095788E-03  1.472688136922002E-04
 8.469600000000E+02  4.737960715411642E-03  1.480763912271031E-04
 8.469800000000E+02  4.750483692552817E-03  1.488907554735173E-04
 8.470000000000E+02  4.763072796631345E-03  1.497119837579359E-04
 8.470200000000E+02  4.775728622709982E-03  1.505401545128689E-04
 8.470400000000E+02  4.788451771904489E-03  1.513753472960854E-04
 8.470600000000E+02  4.801242851486796E-03  1.522176428102450E-04
 8.470800000000E+02  4.814102474989966E-03  1.530671229229275E-04
 8.471000000000E+02  4.827031262314133E-03  1.539238706870721E-04
 8.471200000000E+02  4.840029839834068E-03  1.547879703618306E-04
 8.471400000000E+02  4.853098840508188E-03  1.556595074338562E-04
 8.471600000000E+02  4.866238903989057E-03  1.565385686390253E-04
 8.471800000000E+02  4.879450676735308E-03  1.574252419846039E-04
 8.472000000000E+02  4.892734812125282E-03  1.583196167718788E-04
 8.472200000000E+02  4.906091970572317E-03  1.592217836192621E-04
 8.472400000000E+02  4.919522819641643E-03  1.601318344858662E-04
 8.472600000000E+02  4.933028034168997E-03  1.610498626955830E-04
 8.472800000000E+02  4.946608296381014E-03  1.619759629616605E-04
 8.473000000000E+02  4.960264296017532E-03  1.629102314118012E-04
 8.473200000000E+02  4.973996730455552E-03  1.638527656137903E-04
 8.473400000000E+02  4.987806304835514E-03  1.648036646016599E-04
 8.473600000000E+02  5.001693732188899E-03  1.657630289024233E-04
 8.473800000000E+02  5.015659733568554E-03  1.667309605633616E-04
 8.474000000000E+02  5.029705038180571E-03  1.677075631799082E-04
 8.474200000000E+02  5.043830383518470E-03  1.686929419241252E-04
 8.474400000000E+02  5.058036515499706E-03  1.696872035737931E-04
 8.474600000000E+02  5.072324188604084E-03  1.706904565421288E-04
 8.474800000000E+02  5.086694166014668E-03  1.717028109081507E-04
 8.475000000000E+02  5.101147219761144E-03  1.727243784476981E-04
 8.475200000000E+02  5.115684130865251E-03  1.737552726651330E-04
 8.475400000000E+02  5.130305689488928E-03  1.747956088257312E-04
 8.475600000000E+02  5.145012695084946E-03  1.758455039887839E-04
 8.475800000000E+02  5.159805956550026E-03  1.769050770414359E-04
 8.476000000000E+02  5.174686292380728E-03  1.779744487332596E-04
 8.476200000000E+02  5.189654530831942E-03  1.790537417116056E-04
 8.476400000000E+02  5.204711510078220E-03  1.801430805577360E-04
 8.476600000000E+02  5.219858078377930E-03  1.812425918237596E-04
 8.476800000000E+02  5.235095094240323E-03  1.823524040704007E-04
 8.477000000000E+02  5.250423426595559E-03  1.834726479056159E-04
 8.477200000000E+02  5.265843954967964E-03  1.846034560240751E-04
 8.477400000000E+02  5.281357569652005E-03  1.857449632475401E-04
 8.477600000000E+02  5.296965171891935E-03  1.868973065661625E-04
 8.477800000000E+02  5.312667674064527E-03  1.880606251807092E-04
 8.478000000000E+02  5.328465999865058E-03  1.892350605457708E-04
 8.478200000000E+02  5.344361084496796E-03  1.904207564139466E-04
 8.478400000000E+02  5.360353874864255E-03  1.916178588810449E-04
 8.478600000000E+02  5.376445329769727E-03  1.928265164323396E-04
 8.478800000000E+02  5.392636420113630E-03  1.940468799898835E-04
 8.479000000000E+02  5.408928129098752E-03  1.952791029609294E-04
 8.479200000000E+02  5.425321452438144E-03  1.965233412874748E-04
 8.479400000000E+02  5.441817398567252E-03  1.977797534969728E-04
 8.479600000000E+02  5.458416988860059E-03  1.990485007542239E-04
 8.479800000000E+02  5.475121257848979E-03  2.003297469144976E-04
 8.480000000000E+02  5.491931253449811E-03  2.016236585779057E-04
 8.480200000000E+02  5.508848037190296E-03  2.029304051450676E-04
 8.480400000000E+02  5.525872684443639E-03  2.042501588741024E-04
 8.480600000000E+02  5.543006284666414E-03  2.055830949389712E-04
 8.480800000000E+02  5.560249941641201E-03  2.069293914892368E-04
 8.481000000000E+02  5.577604773724053E-03  2.082892297112418E-04
 8.481200000000E+02  5.595071914096952E-03  2.096627938907753E-04
 8.481400000000E+02  5.612652511025175E-03  2.110502714772550E-04
 8.481600000000E+02  5.630347728120017E-03  2.124518531494679E-04
 8.481800000000E+02  5.648158744606645E-03  2.138677328829149E-04
 8.482000000000E+02  5.666086755597581E-03  2.152981080188071E-04
 8.482200000000E+02  5.684132972371581E-03  2.167431793347554E-04
 8.482400000000E+02  5.702298622658292E-03  2.182031511172042E-04
 8.482600000000E+02  5.720584950928875E-03  2.196782312356565E-04
 8.482800000000E+02  5.738993218692388E-03  2.211686312187450E-04
 8.483000000000E+02  5.757524704798591E-03  2.226745663322006E-04
 8.483200000000E+02  5.776180705746822E-03  2.241962556587658E-04
 8.483400000000E+02  5.794962536001548E-03  2.257339221801238E-04
 8.483600000000E+02  5.813871528314304E-03  2.272877928608854E-04
 8.483800000000E+02  5.832909034052687E-03  2.288580987347082E-04
 8.484000000000E+02  5.852076423536150E-03  2.304450749925931E-04
 8.484200000000E+02  5.871375086378913E-03  2.320489610734406E-04
 8.484400000000E+02  5.890806431840434E-03  2.336700007569201E-04
 8.484600000000E+02  5.910371889183008E-03  2.353084422587227E-04
 8.484800000000E+02  5.930072908037624E-03  2.369645383282725E-04
 8.485000000000E+02  5.949910958777085E-03  2.386385463489639E-04
 8.485200000000E+02  5.969887532897764E-03  2.403307284410038E-04
 8.485400000000E+02  5.990004143409436E-03  2.420413515669311E-04
 8.485600000000E+02  6.010262325233695E-03  2.437706876399072E-04
 8.485800000000E+02  6.030663635611200E-03  2.455190136348390E-04
 8.486000000000E+02  6.051209654517726E-03  2.472866117024445E-04
 8.486200000000E+02  6.071901985089763E-03  2.490737692863274E-04
 8.486400000000E+02  6.092742254059225E-03  2.508807792431718E-04
