#Spectra: 1
Emin______Emax       8.427000000000000E+02  8.827000000000000E+02
EminPole__EmaxPole   8.535783026158567E+02  8.737176109304602E+02
dE________Gamma      2.000000000000000E-02  1.000000000000000E-01
Energy               Re[0]                  Im[0]                
 8.427000000000E+02  1.675147339603855E-03  5.485601616777999E-05
 8.427200000000E+02  1.781203544394197E-03  5.546029556826405E-05
 8.427400000000E+02  1.884163399592271E-03  5.605374164993579E-05
 8.427600000000E+02  1.982276729355137E-03  5.662926916178116E-05
 8.427800000000E+02  2.074317272180254E-03  5.718189770153676E-05
 8.428000000000E+02  2.159601076302497E-03  5.770882976224770E-05
 8.428200000000E+02  2.237914273576799E-03  5.820916267371250E-05
 8.428400000000E+02  2.309396726255257E-03  5.868342170047547E-05
 8.428600000000E+02  2.374421179277674E-03  5.913307415612718E-05
 8.428800000000E+02  2.433490947244842E-03  5.956011757222299E-05
 8.429000000000E+02  2.487164116909025E-03  5.996677430596850E-05
 8.429200000000E+02  2.536003020760577E-03  6.035528774400359E-05
 8.429400000000E+02  2.580543831561077E-03  6.072779946620593E-05
 8.429600000000E+02  2.621280499436083E-03  6.108628415827160E-05
 8.429800000000E+02  2.658658108014710E-03  6.143252247610402E-05
 8.430000000000E+02  2.693071980934208E-03  6.176809710172955E-05
 8.430200000000E+02  2.724870024424281E-03  6.209440187004986E-05
 8.430400000000E+02  2.754356685435568E-03  6.241265744007802E-05
 8.430600000000E+02  2.781797534941953E-03  6.272392951965201E-05
 8.430800000000E+02  2.807423904232161E-03  6.302914733572009E-05
 8.431000000000E+02  2.831437267278403E-03  6.332912111031049E-05
 8.431200000000E+02  2.854013224086190E-03  6.362455795411108E-05
 8.431400000000E+02  2.875305034724415E-03  6.391607597165337E-05
 8.431600000000E+02  2.895446706515352E-03  6.420421658502651E-05
 8.431800000000E+02  2.914555664062004E-03  6.448945519299164E-05
 8.432000000000E+02  2.932735043867650E-03  6.477221033135809E-05
 8.432200000000E+02  2.950075658765193E-03  6.505285151477265E-05
 8.432400000000E+02  2.966657676178405E-03  6.533170593555615E-05
 8.432600000000E+02  2.982552050739860E-03  6.560906418137693E-05
 8.432800000000E+02  2.997821747351153E-03  6.588518511590927E-05
 8.433000000000E+02  3.012522786153181E-03  6.616030004819499E-05
 8.433200000000E+02  3.026705136473933E-03  6.643461629887491E-05
 8.433400000000E+02  3.040413482828038E-03  6.670832025549199E-05
 8.433600000000E+02  3.053687882523081E-03  6.698157999501908E-05
 8.433800000000E+02  3.066564331384329E-03  6.725454753958871E-05
 8.434000000000E+02  3.079075251509475E-03  6.752736080101418E-05
 8.434200000000E+02  3.091249912763573E-03  6.780014526089475E-05
 8.434400000000E+02  3.103114797868887E-03  6.807301542566560E-05
 8.434600000000E+02  3.114693919387392E-03  6.834607608974857E-05
 8.434800000000E+02  3.126009095588796E-03  6.861942343472586E-05
 8.435000000000E+02  3.137080191105296E-03  6.889314598810863E-05
 8.435200000000E+02  3.147925327360501E-03  6.916732546160971E-05
 8.435400000000E+02  3.158561066995138E-03  6.944203748578233E-05
 8.435600000000E+02  3.169002575871616E-03  6.971735225532308E-05
 8.435800000000E+02  3.179263765702083E-03  6.999333509718011E-05
 8.436000000000E+02  3.189357419893089E-03  7.027004697183250E-05
 8.436200000000E+02  3.199295304820634E-03  7.054754491655391E-05
 8.436400000000E+02  3.209088268428788E-03  7.082588243822221E-05
 8.436600000000E+02  3.218746327775317E-03  7.110510986214501E-05
 8.436800000000E+02  3.228278746918921E-03  7.138527464247129E-05
 8.437000000000E+02  3.237694106348691E-03  7.166642163895399E-05
 8.437200000000E+02  3.247000364991969E-03  7.194859336422292E-05
 8.437400000000E+02  3.256204915696719E-03  7.223183020511144E-05
 8.437600000000E+02  3.265314634964217E-03  7.251617062114972E-05
 8.437800000000E+02  3.274335927606855E-03  7.280165132289367E-05
 8.438000000000E+02  3.283274766916945E-03  7.308830743244157E-05
 8.438200000000E+02  3.292136730858405E-03  7.337617262816221E-05
 8.438400000000E+02  3.300927034727623E-03  7.366527927541733E-05
 8.438600000000E+02  3.309650560674845E-03  7.395565854483884E-05
 8.438800000000E+02  3.318311884428546E-03  7.424734051951804E-05
 8.439000000000E+02  3.326915299524284E-03  7.454035429230981E-05
 8.439200000000E+02  3.335464839303087E-03  7.483472805430648E-05
 8.439400000000E+02  3.343964296912851E-03  7.513048917540895E-05
 8.439600000000E+02  3.352417243519526E-03  7.542766427781901E-05
 8.439800000000E+02  3.360827044910449E-03  7.572627930317519E-05
 8.440000000000E+02  3.369196876651814E-03  7.602635957398005E-05
 8.440200000000E+02  3.377529737943862E-03  7.632792984988641E-05
 8.440400000000E+02  3.385828464301554E-03  7.663101437935274E-05
 8.440600000000E+02  3.394095739174422E-03  7.693563694711813E-05
 8.440800000000E+02  3.402334104606962E-03  7.724182091790040E-05
 8.441000000000E+02  3.410545971030267E-03  7.754958927667799E-05
 8.441200000000E+02  3.418733626265823E-03  7.785896466587638E-05
 8.441400000000E+02  3.426899243813833E-03  7.816996941974634E-05
 8.441600000000E+02  3.435044890491665E-03  7.848262559619698E-05
 8.441800000000E+02  3.443172533480232E-03  7.879695500631105E-05
 8.442000000000E+02  3.451284046831225E-03  7.911297924175189E-05
 8.442200000000E+02  3.459381217482581E-03  7.943071970025344E-05
 8.442400000000E+02  3.467465750824582E-03  7.975019760936004E-05
 8.442600000000E+02  3.475539275855321E-03  8.007143404856882E-05
 8.442800000000E+02  3.483603349960237E-03  8.039444997001607E-05
 8.443000000000E+02  3.491659463347329E-03  8.071926621782710E-05
 8.443200000000E+02  3.499709043166455E-03  8.104590354625119E-05
 8.443400000000E+02  3.507753457338727E-03  8.137438263667709E-05
 8.443600000000E+02  3.515794018119388E-03  8.170472411362669E-05
 8.443800000000E+02  3.523831985415731E-03  8.203694855981098E-05
 8.444000000000E+02  3.531868569879170E-03  8.237107653032385E-05
 8.444200000000E+02  3.539904935789569E-03  8.270712856605057E-05
 8.444400000000E+02  3.547942203747702E-03  8.304512520634580E-05
 8.444600000000E+02  3.555981453190580E-03  8.338508700104556E-05
 8.444800000000E+02  3.564023724743369E-03  8.372703452187201E-05
 8.445000000000E+02  3.572070022419978E-03  8.407098837326648E-05
 8.445200000000E+02  3.580121315683478E-03  8.441696920270960E-05
 8.445400000000E+02  3.588178541377159E-03  8.476499771056211E-05
 8.445600000000E+02  3.596242605535229E-03  8.511509465946675E-05
 8.445800000000E+02  3.604314385081967E-03  8.546728088334713E-05
 8.446000000000E+02  3.612394729427534E-03  8.582157729603092E-05
 8.446200000000E+02  3.620484461967511E-03  8.617800489953747E-05
 8.446400000000E+02  3.628584381493047E-03  8.653658479204085E-05
 8.446600000000E+02  3.636695263517885E-03  8.689733817555087E-05
 8.446800000000E+02  3.644817861527951E-03  8.726028636332498E-05
 8.447000000000E+02  3.652952908158712E-03  8.762545078703159E-05
 8.447200000000E+02  3.661101116305374E-03  8.799285300369405E-05
 8.447400000000E+02  3.669263180170440E-03  8.836251470242279E-05
 8.447600000000E+02  3.677439776252382E-03  8.873445771096084E-05
 8.447800000000E+02  3.685631564280028E-03  8.910870400205605E-05
 8.448000000000E+02  3.693839188095484E-03  8.948527569967021E-05
 8.448200000000E+02  3.702063276489542E-03  8.986419508504860E-05
 8.448400000000E+02  3.710304443992105E-03  9.024548460265514E-05
 8.448600000000E+02  3.718563291620932E-03  9.062916686598567E-05
 8.448800000000E+02  3.726840407591030E-03  9.101526466327474E-05
 8.449000000000E+02  3.735136367987435E-03  9.140380096310359E-05
 8.449200000000E+02  3.743451737403274E-03  9.179479891991710E-05
 8.449400000000E+02  3.751787069545786E-03  9.218828187946545E-05
 8.449600000000E+02  3.760142907811736E-03  9.258427338417187E-05
 8.449800000000E+02  3.768519785834446E-03  9.298279717843688E-05
 8.450000000000E+02  3.776918228003989E-03  9.338387721389172E-05
 8.450200000000E+02  3.785338749962199E-03  9.378753765460068E-05
 8.450400000000E+02  3.793781859074065E-03  9.419380288222250E-05
 8.450600000000E+02  3.802248054876650E-03  9.460269750113824E-05
 8.450800000000E+02  3.810737829507337E-03  9.501424634355197E-05
 8.451000000000E+02  3.819251668112047E-03  9.542847447456518E-05
 8.451200000000E+02  3.827790049234930E-03  9.584540719723687E-05
 8.451400000000E+02  3.836353445190606E-03  9.626507005763251E-05
 8.451600000000E+02  3.844942322419764E-03  9.668748884986328E-05
 8.451800000000E+02  3.853557141829258E-03  9.711268962112181E-05
 8.452000000000E+02  3.862198359117355E-03  9.754069867672856E-05
 8.452200000000E+02  3.870866425085287E-03  9.797154258517358E-05
 8.452400000000E+02  3.879561785935489E-03  9.840524818317744E-05
 8.452600000000E+02  3.888284883557629E-03  9.884184258076340E-05
 8.452800000000E+02  3.897036155802886E-03  9.928135316634965E-05
 8.453000000000E+02  3.905816036747120E-03  9.972380761186168E-05
 8.453200000000E+02  3.914624956943612E-03  1.001692338778739E-04
 8.453400000000E+02  3.923463343666035E-03  1.006176602187792E-04
 8.453600000000E+02  3.932331621142053E-03  1.010691151879910E-04
 8.453800000000E+02  3.941230210777836E-03  1.015236276431815E-04
 8.454000000000E+02  3.950159531374666E-03  1.019812267515611E-04
 8.454200000000E+02  3.959119999337311E-03  1.024419419951964E-04
 8.454400000000E+02  3.968112028874946E-03  1.029058031763793E-04
 8.454600000000E+02  3.977136032195105E-03  1.033728404230397E-04
 8.454800000000E+02  3.986192419690940E-03  1.038430841942115E-04
 8.455000000000E+02  3.995281600121912E-03  1.043165652855540E-04
 8.455200000000E+02  4.004403980788830E-03  1.047933148349278E-04
 8.455400000000E+02  4.013559967702854E-03  1.052733643280352E-04
 8.455600000000E+02  4.022749965749335E-03  1.057567456041169E-04
 8.455800000000E+02  4.031974378846418E-03  1.062434908617184E-04
 8.456000000000E+02  4.041233610098986E-03  1.067336326645269E-04
 8.456200000000E+02  4.050528061947857E-03  1.072272039472713E-04
 8.456400000000E+02  4.059858136314686E-03  1.077242380217042E-04
 8.456600000000E+02  4.069224234742854E-03  1.082247685826537E-04
 8.456800000000E+02  4.078626758534525E-03  1.087288297141572E-04
 8.457000000000E+02  4.088066108883763E-03  1.092364558956766E-04
 8.457200000000E+02  4.097542687006480E-03  1.097476820083961E-04
 8.457400000000E+02  4.107056894266969E-03  1.102625433416091E-04
 8.457600000000E+02  4.116609132301370E-03  1.107810755991908E-04
 8.457800000000E+02  4.126199803138096E-03  1.113033149061672E-04
 8.458000000000E+02  4.135829309315693E-03  1.118292978153767E-04
 8.458200000000E+02  4.145498053997801E-03  1.123590613142289E-04
 8.458400000000E+02  4.155206441086134E-03  1.128926428315626E-04
 8.458600000000E+02  4.164954875330461E-03  1.134300802446125E-04
 8.458800000000E+02  4.174743762437061E-03  1.139714118860725E-04
 8.459000000000E+02  4.184573509174516E-03  1.145166765512758E-04
 8.459200000000E+02  4.194444523478254E-03  1.150659135054811E-04
 8.459400000000E+02  4.204357214552416E-03  1.156191624912759E-04
 8.459600000000E+02  4.214311992970930E-03  1.161764637360940E-04
 8.459800000000E+02  4.224309270776266E-03  1.167378579598568E-04
 8.460000000000E+02  4.234349461576954E-03  1.173033863827338E-04
 8.460200000000E+02  4.244432980643914E-03  1.178730907330319E-04
 8.460400000000E+02  4.254560245005075E-03  1.184470132552109E-04
 8.460600000000E+02  4.264731673539109E-03  1.190251967180353E-04
 8.460800000000E+02  4.274947687067987E-03  1.196076844228552E-04
 8.461000000000E+02  4.285208708448171E-03  1.201945202120313E-04
 8.461200000000E+02  4.295515162661417E-03  1.207857484775013E-04
 8.461400000000E+02  4.305867476904265E-03  1.213814141694859E-04
 8.461600000000E+02  4.316266080676798E-03  1.219815628053481E-04
 8.461800000000E+02  4.326711405870795E-03  1.225862404786046E-04
 8.462000000000E+02  4.337203886857230E-03  1.231954938680890E-04
 8.462200000000E+02  4.347743960572901E-03  1.238093702472760E-04
 8.462400000000E+02  4.358332066607041E-03  1.244279174937701E-04
 8.462600000000E+02  4.368968647286888E-03  1.250511840989543E-04
 8.462800000000E+02  4.379654147763258E-03  1.256792191778174E-04
 8.463000000000E+02  4.390389016095684E-03  1.263120724789484E-04
 8.463200000000E+02  4.401173703337182E-03  1.269497943947095E-04
 8.463400000000E+02  4.412008663618941E-03  1.275924359715952E-04
 8.463600000000E+02  4.422894354234695E-03  1.282400489207729E-04
 8.463800000000E+02  4.433831235725020E-03  1.288926856288149E-04
 8.464000000000E+02  4.444819771961708E-03  1.295503991686255E-04
 8.464200000000E+02  4.455860430231971E-03  1.302132433105665E-04
 8.464400000000E+02  4.466953681322700E-03  1.308812725337871E-04
 8.464600000000E+02  4.478099999604895E-03  1.315545420377563E-04
 8.464800000000E+02  4.489299863118180E-03  1.322331077540171E-04
 8.465000000000E+02  4.500553753655497E-03  1.329170263581498E-04
 8.465200000000E+02  4.511862156847997E-03  1.336063552819590E-04
 8.465400000000E+02  4.523225562250439E-03  1.343011527258936E-04
 8.465600000000E+02  4.534644463426494E-03  1.350014776716908E-04
 8.465800000000E+02  4.546119358034803E-03  1.357073898952629E-04
 8.466000000000E+02  4.557650747915250E-03  1.364189499798261E-04
 8.466200000000E+02  4.569239139175676E-03  1.371362193292757E-04
 8.466400000000E+02  4.580885042279238E-03  1.378592601818195E-04
 8.466600000000E+02  4.592588972132201E-03  1.385881356238663E-04
 8.466800000000E+02  4.604351448172232E-03  1.393229096041796E-04
 8.467000000000E+02  4.616172994457437E-03  1.400636469483136E-04
 8.467200000000E+02  4.628054139756067E-03  1.408104133733089E-04
 8.467400000000E+02  4.639995417636924E-03  1.415632755026904E-04
 8.467600000000E+02  4.651997366560323E-03  1.423223008817444E-04
 8.467800000000E+02  4.664060529970138E-03  1.430875579930978E-04
 8.468000000000E+02  4.676185456386466E-03  1.438591162725983E-04
 8.468200000000E+02  4.688372699499152E-03  1.446370461255122E-04
 8.468400000000E+02  4.700622818262480E-03  1.454214189430329E-04
 8.468600000000E+02  4.712936376990383E-03  1.462123071191193E-04
 8.468800000000E+02  4.725313945452987E-03  1.470097840676678E-04
 8.469000000000E+02  4.737756098974148E-03  1.478139242400210E-04
 8.469200000000E+02  4.750263418529774E-03  1.486248031428345E-04
 8.469400000000E+02  4.762836490847669E-03  1.494424973562874E-04
 8.469600000000E+02  4.775475908508128E-03  1.502670845526690E-04
 8.469800000000E+02  4.788182270046107E-03  1.510986435153383E-04
 8.470000000000E+02  4.800956180054288E-03  1.519372541580564E-04
 8.470200000000E+02  4.813798249287574E-03  1.527829975447267E-04
 8.470400000000E+02  4.826709094769050E-03  1.536359559095183E-04
 8.470600000000E+02  4.839689339896889E-03  1.544962126774152E-04
 8.470800000000E+02  4.852739614553142E-03  1.553638524851733E-04
 8.471000000000E+02  4.865860555213663E-03  1.562389612027191E-04
 8.471200000000E+02  4.879052805059520E-03  1.571216259549754E-04
 8.471400000000E+02  4.892317014090298E-03  1.580119351441519E-04
 8.471600000000E+02  4.905653839238384E-03  1.589099784724855E-04
 8.471800000000E+02  4.919063944485442E-03  1.598158469654589E-04
 8.472000000000E+02  4.932548000980216E-03  1.607296329955060E-04
 8.472200000000E+02  4.946106687158260E-03  1.616514303062042E-04
 8.472400000000E+02  4.959740688863229E-03  1.625813340369837E-04
 8.472600000000E+02  4.973450699470172E-03  1.635194407483537E-04
 8.472800000000E+02  4.987237420010626E-03  1.644658484476551E-04
 8.473000000000E+02  5.001101559299421E-03  1.654206566153706E-04
 8.473200000000E+02  5.015043834063961E-03  1.663839662319860E-04
 8.473400000000E+02  5.029064969074877E-03  1.673558798054226E-04
 8.473600000000E+02  5.043165697279266E-03  1.683365013990647E-04
 8.473800000000E+02  5.057346759935757E-03  1.693259366603844E-04
 8.474000000000E+02  5.071608906751938E-03  1.703242928501742E-04
 8.474200000000E+02  5.085952896023718E-03  1.713316788724298E-04
 8.474400000000E+02  5.100379494777534E-03  1.723482053048646E-04
 8.474600000000E+02  5.114889478914209E-03  1.733739844300928E-04
 8.474800000000E+02  5.129483633355730E-03  1.744091302674937E-04
 8.475000000000E+02  5.144162752194275E-03  1.754537586057753E-04
 8.475200000000E+02  5.158927638843873E-03  1.765079870362469E-04
 8.475400000000E+02  5.173779106194525E-03  1.775719349868308E-04
 8.475600000000E+02  5.188717976768981E-03  1.786457237568215E-04
 8.475800000000E+02  5.203745082882452E-03  1.797294765524204E-04
 8.476000000000E+02  5.218861266804844E-03  1.808233185230534E-04
 8.476200000000E+02  5.234067380925912E-03  1.819273767985085E-04
 8.476400000000E+02  5.249364287923454E-03  1.830417805269014E-04
 8.476600000000E+02  5.264752860934424E-03  1.841666609134884E-04
 8.476800000000E+02  5.280233983729023E-03  1.853021512603667E-04
 8.477000000000E+02  5.295808550887997E-03  1.864483870070599E-04
 8.477200000000E+02  5.311477467983282E-03  1.876055057720358E-04
 8.477400000000E+02  5.327241651761709E-03  1.887736473951605E-04
 8.477600000000E+02  5.343102030332207E-03  1.899529539811311E-04
 8.477800000000E+02  5.359059543356534E-03  1.911435699438987E-04
 8.478000000000E+02  5.375115142243346E-03  1.923456420521142E-04
 8.478200000000E+02  5.391269790346087E-03  1.935593194756252E-04
 8.478400000000E+02  5.407524463164547E-03  1.947847538330487E-04
 8.478600000000E+02  5.423880148550059E-03  1.960220992404523E-04
 8.478800000000E+02  5.440337846914799E-03  1.972715123611641E-04
 8.479000000000E+02  5.456898571445013E-03  1.985331524567572E-04
 8.479200000000E+02  5.473563348318355E-03  1.998071814392235E-04
 8.479400000000E+02  5.490333216925151E-03  2.010937639243861E-04
 8.479600000000E+02  5.507209230094510E-03  2.023930672865627E-04
 8.479800000000E+02  5.524192454324213E-03  2.037052617145397E-04
 8.480000000000E+02  5.541283970015464E-03  2.050305202688706E-04
 8.480200000000E+02  5.558484871712260E-03  2.063690189405435E-04
 8.480400000000E+02  5.575796268345139E-03  2.077209367110632E-04
 8.480600000000E+02  5.593219283480378E-03  2.090864556139676E-04
 8.480800000000E+02  5.610755055573385E-03  2.104657607978451E-04
 8.481000000000E+02  5.628404738227922E-03  2.118590405908624E-04
 8.481200000000E+02  5.646169500459927E-03  2.132664865668747E-04
 8.481400000000E+02  5.664050526967061E-03  2.146882936131457E-04
 8.481600000000E+02  5.682049018403539E-03  2.161246599997256E-04
 8.481800000000E+02  5.700166191660647E-03  2.175757874505364E-04
 8.482000000000E+02  5.718403280152868E-03  2.190418812162080E-04
 8.482200000000E+02  5.736761534110047E-03  2.205231501487265E-04
 8.482400000000E+02  5.755242220875621E-03  2.220198067779269E-04
 8.482600000000E+02  5.773846625210686E-03  2.235320673899033E-04
 8.482800000000E+02  5.792576049604949E-03  2.250601521073779E-04
 8.483000000000E+02  5.811431814593665E-03  2.266042849720879E-04
 8.483200000000E+02  5.830415259081552E-03  2.281646940292588E-04
 8.483400000000E+02  5.849527740673397E-03  2.297416114142036E-04
 8.483600000000E+02  5.868770636011765E-03  2.313352734411359E-04
 8.483800000000E+02  5.888145341121795E-03  2.329459206942406E-04
 8.484000000000E+02  5.907653271763453E-03  2.345737981210719E-04
 8.484200000000E+02  5.927295863791165E-03  2.362191551283651E-04
 8.484400000000E+02  5.947074573521582E-03  2.378822456803068E-04
 8.484600000000E+02  5.966990878108771E-03  2.395633283993556E-04
 8.484800000000E+02  5.987046275928077E-03  2.412626666696819E-04
 8.485000000000E+02  6.007242286967961E-03  2.429805287433078E-04
 8.485200000000E+02  6.027580453230625E-03  2.447171878490214E-04
 8.485400000000E+02  6.048062339141512E-03  2.464729223041642E-04
 8.485600000000E+02  6.068689531967642E-03  2.482480156293590E-04
 8.485800000000E+02  6.089463642245281E-03  2.500427566662834E-04
 8.486000000000E+02  6.110386304217402E-03  2.518574396985694E-04
 8.486200000000E+02  6.131459176280544E-03  2.536923645759404E-04
 8.486400000000E+02  6.152683941441909E-03  2.555478368416717E-04
