#Spectra: 1
Emin______Emax       8.430000000000000E+02  8.830000000000000E+02
EminPole__EmaxPole   8.536413026158567E+02  8.737806109304602E+02
dE________Gamma      2.000000000000000E-02  1.000000000000000E-01
Energy               Re[0]                  Im[0]                
 8.430000000000E+02  1.708867260476405E-03  5.713557495057336E-05
 8.430200000000E+02  1.817060843700157E-03  5.776919195397477E-05
 8.430400000000E+02  1.922101659694578E-03  5.839160464261709E-05
 8.430600000000E+02  2.022205230966841E-03  5.899543402385953E-05
 8.430800000000E+02  2.116121173956297E-03  5.957549260849674E-05
 8.431000000000E+02  2.203151972308095E-03  6.012886585036727E-05
 8.431200000000E+02  2.283079357802382E-03  6.065461232029024E-05
 8.431400000000E+02  2.356045699065340E-03  6.115327760586760E-05
 8.431600000000E+02  2.422430803887952E-03  6.162638840587339E-05
 8.431800000000E+02  2.482747614343612E-03  6.207602371039727E-05
 8.432000000000E+02  2.537564932193164E-03  6.250449679805989E-05
 8.432200000000E+02  2.587455906751104E-03  6.291414301503937E-05
 8.432400000000E+02  2.632967035264846E-03  6.330719185260247E-05
 8.432600000000E+02  2.674601785161529E-03  6.368569915643099E-05
 8.432800000000E+02  2.712813818902481E-03  6.405151885500222E-05
 8.433000000000E+02  2.748006081374735E-03  6.440629883813625E-05
 8.433200000000E+02  2.780533186584653E-03  6.475149044749711E-05
 8.433400000000E+02  2.810705451552877E-03  6.508836478332954E-05
 8.433600000000E+02  2.838793567736619E-03  6.541803167158421E-05
 8.433800000000E+02  2.865033326632279E-03  6.574145888811496E-05
 8.434000000000E+02  2.889630086648526E-03  6.605949034872455E-05
 8.434200000000E+02  2.912762833309617E-03  6.637286265254810E-05
 8.434400000000E+02  2.934587781491112E-03  6.668221976412169E-05
 8.434600000000E+02  2.955241522200998E-03  6.698812584122008E-05
 8.434800000000E+02  2.974843744148483E-03  6.729107633004176E-05
 8.435000000000E+02  2.993499572657508E-03  6.759150750035322E-05
 8.435200000000E+02  3.011301572013446E-03  6.788980460809897E-05
 8.435400000000E+02  3.028331456114751E-03  6.818630886828098E-05
 8.435600000000E+02  3.044661548736209E-03  6.848132340653026E-05
 8.435800000000E+02  3.060356030187064E-03  6.877511833940446E-05
 8.436000000000E+02  3.075472002439399E-03  6.906793511428416E-05
 8.436200000000E+02  3.090060400317151E-03  6.935999022145965E-05
 8.436400000000E+02  3.104166772266269E-03  6.965147837438625E-05
 8.436600000000E+02  3.117831950638882E-03  6.994257523946450E-05
 8.436800000000E+02  3.131092628321794E-03  7.023343978401392E-05
 8.437000000000E+02  3.143981855890179E-03  7.052421630032194E-05
 8.437200000000E+02  3.156529471222799E-03  7.081503615445759E-05
 8.437400000000E+02  3.168762471623702E-03  7.110601930083939E-05
 8.437600000000E+02  3.180705336908552E-03  7.139727559705658E-05
 8.437800000000E+02  3.192380310583553E-03  7.168890594801772E-05
 8.438000000000E+02  3.203807645131999E-03  7.198100330395917E-05
 8.438200000000E+02  3.215005816492375E-03  7.227365353303683E-05
 8.438400000000E+02  3.225991712031920E-03  7.256693618605772E-05
 8.438600000000E+02  3.236780795667096E-03  7.286092516822113E-05
 8.438800000000E+02  3.247387253234211E-03  7.315568933053144E-05
 8.439000000000E+02  3.257824120753292E-03  7.345129299164182E-05
 8.439200000000E+02  3.268103397841989E-03  7.374779639932698E-05
 8.439400000000E+02  3.278236148208699E-03  7.404525613944379E-05
 8.439600000000E+02  3.288232588880360E-03  7.434372549911745E-05
 8.439800000000E+02  3.298102169585572E-03  7.464325478994500E-05
 8.440000000000E+02  3.307853643517568E-03  7.494389163619174E-05
 8.440200000000E+02  3.317495130532728E-03  7.524568123228903E-05
 8.440400000000E+02  3.327034173698004E-03  7.554866657333455E-05
 8.440600000000E+02  3.336477789978435E-03  7.585288866183309E-05
 8.440800000000E+02  3.345832515751961E-03  7.615838669345642E-05
 8.441000000000E+02  3.355104447749202E-03  7.646519822426494E-05
 8.441200000000E+02  3.364299279939617E-03  7.677335932150124E-05
 8.441400000000E+02  3.373422336819081E-03  7.708290469981721E-05
 8.441600000000E+02  3.382478603497660E-03  7.739386784454617E-05
 8.441800000000E+02  3.391472752936837E-03  7.770628112344026E-05
 8.442000000000E+02  3.400409170643264E-03  7.802017588812919E-05
 8.442200000000E+02  3.409291977089169E-03  7.833558256638866E-05
 8.442400000000E+02  3.418125048097687E-03  7.865253074618878E-05
 8.442600000000E+02  3.426912033403483E-03  7.897104925237896E-05
 8.442800000000E+02  3.435656373574894E-03  7.929116621676677E-05
 8.443000000000E+02  3.444361315462302E-03  7.961290914225358E-05
 8.443200000000E+02  3.453029926319511E-03  7.993630496162766E-05
 8.443400000000E+02  3.461665106727959E-03  8.026138009154358E-05
 8.443600000000E+02  3.470269602439877E-03  8.058816048215068E-05
 8.443800000000E+02  3.478846015243746E-03  8.091667166280108E-05
 8.444000000000E+02  3.487396812944067E-03  8.124693878420357E-05
 8.444200000000E+02  3.495924338538683E-03  8.157898665736006E-05
 8.444400000000E+02  3.504430818666595E-03  8.191283978958970E-05
 8.444600000000E+02  3.512918371393660E-03  8.224852241790051E-05
 8.444800000000E+02  3.521389013394848E-03  8.258605853996020E-05
 8.445000000000E+02  3.529844666587258E-03  8.292547194287848E-05
 8.445200000000E+02  3.538287164261672E-03  8.326678622999143E-05
 8.445400000000E+02  3.546718256756470E-03  8.361002484583992E-05
 8.445600000000E+02  3.555139616712899E-03  8.395521109948363E-05
 8.445800000000E+02  3.563552843947455E-03  8.430236818630579E-05
 8.446000000000E+02  3.571959469973134E-03  8.465151920843643E-05
 8.446200000000E+02  3.580360962199007E-03  8.500268719391211E-05
 8.446400000000E+02  3.588758727834259E-03  8.535589511467724E-05
 8.446600000000E+02  3.597154117520696E-03  8.571116590353038E-05
 8.446800000000E+02  3.605548428715561E-03  8.606852247009593E-05
 8.447000000000E+02  3.613942908844427E-03  8.642798771590950E-05
 8.447200000000E+02  3.622338758242158E-03  8.678958454868456E-05
 8.447400000000E+02  3.630737132898574E-03  8.715333589583108E-05
 8.447600000000E+02  3.639139147023621E-03  8.751926471728859E-05
 8.447800000000E+02  3.647545875445877E-03  8.788739401772405E-05
 8.448000000000E+02  3.655958355857004E-03  8.825774685814973E-05
 8.448200000000E+02  3.664377590913574E-03  8.863034636701397E-05
 8.448400000000E+02  3.672804550206697E-03  8.900521575078950E-05
 8.448600000000E+02  3.681240172109328E-03  8.938237830412596E-05
 8.448800000000E+02  3.689685365509972E-03  8.976185741957799E-05
 8.449000000000E+02  3.698141011440851E-03  9.014367659695459E-05
 8.449200000000E+02  3.706607964608245E-03  9.052785945232389E-05
 8.449400000000E+02  3.715087054831696E-03  9.091442972669295E-05
 8.449600000000E+02  3.723579088398577E-03  9.130341129439290E-05
 8.449800000000E+02  3.732084849339628E-03  9.169482817119500E-05
 8.450000000000E+02  3.740605100631249E-03  9.208870452218129E-05
 8.450200000000E+02  3.749140585329116E-03  9.248506466938154E-05
 8.450400000000E+02  3.757692027638002E-03  9.288393309921288E-05
 8.450600000000E+02  3.766260133921926E-03  9.328533446972172E-05
 8.450800000000E+02  3.774845593658666E-03  9.368929361765607E-05
 8.451000000000E+02  3.783449080342155E-03  9.409583556538183E-05
 8.451200000000E+02  3.792071252336303E-03  9.450498552765656E-05
 8.451400000000E+02  3.800712753683128E-03  9.491676891827082E-05
 8.451600000000E+02  3.809374214868483E-03  9.533121135657920E-05
 8.451800000000E+02  3.818056253547699E-03  9.574833867392164E-05
 8.452000000000E+02  3.826759475233831E-03  9.616817691995365E-05
 8.452200000000E+02  3.835484473950897E-03  9.659075236889487E-05
 8.452400000000E+02  3.844231832854146E-03  9.701609152570118E-05
 8.452600000000E+02  3.853002124819470E-03  9.744422113217600E-05
 8.452800000000E+02  3.861795913003762E-03  9.787516817302613E-05
 8.453000000000E+02  3.870613751378151E-03  9.830895988186732E-05
 8.453200000000E+02  3.879456185235443E-03  9.874562374719386E-05
 8.453400000000E+02  3.888323751673610E-03  9.918518751831513E-05
 8.453600000000E+02  3.897216980056674E-03  9.962767921126659E-05
 8.453800000000E+02  3.906136392454061E-03  1.000731271147019E-04
 8.454000000000E+02  3.915082504060073E-03  1.005215597957738E-04
 8.454200000000E+02  3.924055823594457E-03  1.009730061060074E-04
 8.454400000000E+02  3.933056853684968E-03  1.014274951871748E-04
 8.454600000000E+02  3.942086091233456E-03  1.018850564771704E-04
 8.454800000000E+02  3.951144027765684E-03  1.023457197159013E-04
 8.455000000000E+02  3.960231149766822E-03  1.028095149511877E-04
 8.455200000000E+02  3.969347939002167E-03  1.032764725446878E-04
 8.455400000000E+02  3.978494872825158E-03  1.037466231778429E-04
 8.455600000000E+02  3.987672424472427E-03  1.042199978578525E-04
 8.455800000000E+02  3.996881063347308E-03  1.046966279236839E-04
 8.456000000000E+02  4.006121255291931E-03  1.051765450521188E-04
 8.456200000000E+02  4.015393462848813E-03  1.056597812638367E-04
 8.456400000000E+02  4.024698145512507E-03  1.061463689295521E-04
 8.456600000000E+02  4.034035759971789E-03  1.066363407761923E-04
 8.456800000000E+02  4.043406760342784E-03  1.071297298931330E-04
 8.457000000000E+02  4.052811598393875E-03  1.076265697384881E-04
 8.457200000000E+02  4.062250723762452E-03  1.081268941454608E-04
 8.457400000000E+02  4.071724584164272E-03  1.086307373287576E-04
 8.457600000000E+02  4.081233625595431E-03  1.091381338910702E-04
 8.457800000000E+02  4.090778292527896E-03  1.096491188296264E-04
 8.458000000000E+02  4.100359028098449E-03  1.101637275428146E-04
 8.458200000000E+02  4.109976274291556E-03  1.106819958368883E-04
 8.458400000000E+02  4.119630472116761E-03  1.112039599327482E-04
 8.458600000000E+02  4.129322061780393E-03  1.117296564728091E-04
 8.458800000000E+02  4.139051482852367E-03  1.122591225279535E-04
 8.459000000000E+02  4.148819174428104E-03  1.127923956045741E-04
 8.459200000000E+02  4.158625575285697E-03  1.133295136517150E-04
 8.459400000000E+02  4.168471124039185E-03  1.138705150683014E-04
 8.459600000000E+02  4.178356259287218E-03  1.144154387104772E-04
 8.459800000000E+02  4.188281419758423E-03  1.149643238990394E-04
 8.460000000000E+02  4.198247044452509E-03  1.155172104269830E-04
 8.460200000000E+02  4.208253572778597E-03  1.160741385671530E-04
 8.460400000000E+02  4.218301444689688E-03  1.166351490800135E-04
 8.460600000000E+02  4.228391100814644E-03  1.172002832215248E-04
 8.460800000000E+02  4.238522982586851E-03  1.177695827511504E-04
 8.461000000000E+02  4.248697532370282E-03  1.183430899399769E-04
 8.461200000000E+02  4.258915193583251E-03  1.189208475789694E-04
 8.461400000000E+02  4.269176410819354E-03  1.195028989873478E-04
 8.461600000000E+02  4.279481629966590E-03  1.200892880211019E-04
 8.461800000000E+02  4.289831298323929E-03  1.206800590816421E-04
 8.462000000000E+02  4.300225864716270E-03  1.212752571245879E-04
 8.462200000000E+02  4.310665779607438E-03  1.218749276687033E-04
 8.462400000000E+02  4.321151495211238E-03  1.224791168049765E-04
 8.462600000000E+02  4.331683465601205E-03  1.230878712058513E-04
 8.462800000000E+02  4.342262146818645E-03  1.237012381346146E-04
 8.463000000000E+02  4.352887996979397E-03  1.243192654549416E-04
 8.463200000000E+02  4.363561476379270E-03  1.249420016406018E-04
 8.463400000000E+02  4.374283047598226E-03  1.255694957853344E-04
 8.463600000000E+02  4.385053175603588E-03  1.262017976128900E-04
 8.463800000000E+02  4.395872327852088E-03  1.268389574872505E-04
 8.464000000000E+02  4.406740974391217E-03  1.274810264230228E-04
 8.464200000000E+02  4.417659587959585E-03  1.281280560960227E-04
 8.464400000000E+02  4.428628644086516E-03  1.287800988540355E-04
 8.464600000000E+02  4.439648621191184E-03  1.294372077277783E-04
 8.464800000000E+02  4.450720000680898E-03  1.300994364420473E-04
 8.465000000000E+02  4.461843267049059E-03  1.307668394270784E-04
 8.465200000000E+02  4.473018907972691E-03  1.314394718300998E-04
 8.465400000000E+02  4.484247414409435E-03  1.321173895271039E-04
 8.465600000000E+02  4.495529280694402E-03  1.328006491348291E-04
 8.465800000000E+02  4.506865004636835E-03  1.334893080229593E-04
 8.466000000000E+02  4.518255087616313E-03  1.341834243265568E-04
 8.466200000000E+02  4.529700034679308E-03  1.348830569587146E-04
 8.466400000000E+02  4.541200354635214E-03  1.355882656234499E-04
 8.466600000000E+02  4.552756560152899E-03  1.362991108288384E-04
 8.466800000000E+02  4.564369167856796E-03  1.370156539003888E-04
 8.467000000000E+02  4.576038698423636E-03  1.377379569946768E-04
 8.467200000000E+02  4.587765676679071E-03  1.384660831132315E-04
 8.467400000000E+02  4.599550631694565E-03  1.392000961166881E-04
 8.467600000000E+02  4.611394096884778E-03  1.399400607392043E-04
 8.467800000000E+02  4.623296610105101E-03  1.406860426031655E-04
 8.468000000000E+02  4.635258713749644E-03  1.414381082341544E-04
 8.468200000000E+02  4.647280954849876E-03  1.421963250762232E-04
 8.468400000000E+02  4.659363885173551E-03  1.429607615074548E-04
 8.468600000000E+02  4.671508061324220E-03  1.437314868558297E-04
 8.468800000000E+02  4.683714044841619E-03  1.445085714153987E-04
 8.469000000000E+02  4.695982402302238E-03  1.452920864627685E-04
 8.469200000000E+02  4.708313705421237E-03  1.460821042739272E-04
 8.469400000000E+02  4.720708531154493E-03  1.468786981413756E-04
 8.469600000000E+02  4.733167461802081E-03  1.476819423916219E-04
 8.469800000000E+02  4.745691085111890E-03  1.484919124030069E-04
 8.470000000000E+02  4.758279994384954E-03  1.493086846238935E-04
 8.470200000000E+02  4.770934788581104E-03  1.501323365912142E-04
 8.470400000000E+02  4.783656072425984E-03  1.509629469493894E-04
 8.470600000000E+02  4.796444456518997E-03  1.518005954696367E-04
 8.470800000000E+02  4.809300557442386E-03  1.526453630696558E-04
 8.471000000000E+02  4.822224997871312E-03  1.534973318337194E-04
 8.471200000000E+02  4.835218406685535E-03  1.543565850331754E-04
 8.471400000000E+02  4.848281419081922E-03  1.552232071473597E-04
 8.471600000000E+02  4.861414676688460E-03  1.560972838849433E-04
 8.471800000000E+02  4.874618827679531E-03  1.569789022057122E-04
 8.472000000000E+02  4.887894526892785E-03  1.578681503428016E-04
 8.472200000000E+02  4.901242435947099E-03  1.587651178253835E-04
 8.472400000000E+02  4.914663223362406E-03  1.596698955018321E-04
 8.472600000000E+02  4.928157564680906E-03  1.605825755633620E-04
 8.472800000000E+02  4.941726142589769E-03  1.615032515681703E-04
 8.473000000000E+02  4.955369647045682E-03  1.624320184660728E-04
 8.473200000000E+02  4.969088775400997E-03  1.633689726236690E-04
 8.473400000000E+02  4.982884232531719E-03  1.643142118500278E-04
 8.473600000000E+02  4.996756730967087E-03  1.652678354229267E-04
 8.473800000000E+02  5.010706991021375E-03  1.662299441156358E-04
 8.474000000000E+02  5.024735740927215E-03  1.672006402242830E-04
 8.474200000000E+02  5.038843716971164E-03  1.681800275957996E-04
 8.474400000000E+02  5.053031663631297E-03  1.691682116564585E-04
 8.474600000000E+02  5.067300333716662E-03  1.701652994410391E-04
 8.474800000000E+02  5.081650488509148E-03  1.711713996226121E-04
 8.475000000000E+02  5.096082897907343E-03  1.721866225429666E-04
 8.475200000000E+02  5.110598340572833E-03  1.732110802437100E-04
 8.475400000000E+02  5.125197604078675E-03  1.742448864980337E-04
 8.475600000000E+02  5.139881485060339E-03  1.752881568431774E-04
 8.475800000000E+02  5.154650789369162E-03  1.763410086136061E-04
 8.476000000000E+02  5.169506332228085E-03  1.774035609749187E-04
 8.476200000000E+02  5.184448938390285E-03  1.784759349585007E-04
 8.476400000000E+02  5.199479442300170E-03  1.795582534969490E-04
 8.476600000000E+02  5.214598688257336E-03  1.806506414602834E-04
 8.476800000000E+02  5.229807530583091E-03  1.817532256929595E-04
 8.477000000000E+02  5.245106833789938E-03  1.828661350517212E-04
 8.477200000000E+02  5.260497472754028E-03  1.839895004442943E-04
 8.477400000000E+02  5.275980332890578E-03  1.851234548689518E-04
 8.477600000000E+02  5.291556310332342E-03  1.862681334549795E-04
 8.477800000000E+02  5.307226312111214E-03  1.874236735040557E-04
 8.478000000000E+02  5.322991256343236E-03  1.885902145325707E-04
 8.478200000000E+02  5.338852072416642E-03  1.897678983149152E-04
 8.478400000000E+02  5.354809701183589E-03  1.909568689277596E-04
 8.478600000000E+02  5.370865095155220E-03  1.921572727953539E-04
 8.478800000000E+02  5.387019218700270E-03  1.933692587358683E-04
 8.479000000000E+02  5.403273048247456E-03  1.945929780088074E-04
 8.479200000000E+02  5.419627572491442E-03  1.958285843635284E-04
 8.479400000000E+02  5.436083792602952E-03  1.970762340888898E-04
 8.479600000000E+02  5.452642722442431E-03  1.983360860640568E-04
 8.479800000000E+02  5.469305388778049E-03  1.996083018105041E-04
 8.480000000000E+02  5.486072831507682E-03  2.008930455452411E-04
 8.480200000000E+02  5.502946103885258E-03  2.021904842352939E-04
 8.480400000000E+02  5.519926272751225E-03  2.035007876534843E-04
 8.480600000000E+02  5.537014418767852E-03  2.048241284355290E-04
 8.480800000000E+02  5.554211636658666E-03  2.061606821385096E-04
 8.481000000000E+02  5.571519035452820E-03  2.075106273007334E-04
 8.481200000000E+02  5.588937738734244E-03  2.088741455030531E-04
 8.481400000000E+02  5.606468884895664E-03  2.102514214316417E-04
 8.481600000000E+02  5.624113627397623E-03  2.116426429423077E-04
 8.481800000000E+02  5.641873135032653E-03  2.130480011263671E-04
 8.482000000000E+02  5.659748592194870E-03  2.144676903781179E-04
 8.482200000000E+02  5.677741199154865E-03  2.159019084639739E-04
 8.482400000000E+02  5.695852172340221E-03  2.173508565932923E-04
 8.482600000000E+02  5.714082744621594E-03  2.188147394909510E-04
 8.482800000000E+02  5.732434165604853E-03  2.202937654717214E-04
 8.483000000000E+02  5.750907701929056E-03  2.217881465164848E-04
 8.483200000000E+02  5.769504637570567E-03  2.232980983503571E-04
 8.483400000000E+02  5.788226274153539E-03  2.248238405227601E-04
 8.483600000000E+02  5.807073931266830E-03  2.263655964895102E-04
 8.483800000000E+02  5.826048946787504E-03  2.279235936969698E-04
 8.484000000000E+02  5.845152677211151E-03  2.294980636683352E-04
 8.484200000000E+02  5.864386497989112E-03  2.310892420921120E-04
 8.484400000000E+02  5.883751803873026E-03  2.326973689128423E-04
 8.484600000000E+02  5.903250009266338E-03  2.343226884241609E-04
 8.484800000000E+02  5.922882548583864E-03  2.359654493642333E-04
 8.485000000000E+02  5.942650876618391E-03  2.376259050136637E-04
 8.485200000000E+02  5.962556468915872E-03  2.393043132959239E-04
 8.485400000000E+02  5.982600822158166E-03  2.410009368804023E-04
 8.485600000000E+02  6.002785454554432E-03  2.427160432881318E-04
 8.485800000000E+02  6.023111906240971E-03  2.444499050002908E-04
 8.486000000000E+02  6.043581739689834E-03  2.462027995695513E-04
 8.486200000000E+02  6.064196540126316E-03  2.479750097343626E-04
 8.486400000000E+02  6.084957915956044E-03  2.497668235362648E-04
 8.486600000000E+02  6.105867499201029E-03  2.515785344403214E-04
 8.486800000000E+02  6.126926945945771E-03  2.534104414587600E-04
 8.487000000000E+02  6.148137936793433E-03  2.552628492779243E-04
 8.487200000000E+02  6.169502177331951E-03  2.571360683886491E-04
 8.487400000000E+02  6.191021398610963E-03  2.590304152201534E-04
 8.487600000000E+02  6.212697357629402E-03  2.609462122775480E-04
 8.487800000000E+02  6.234531837834257E-03  2.628837882831104E-04
 8.488000000000E+02  6.256526649630701E-03  2.648434783213906E-04
 8.488200000000E+02  6.278683630904014E-03  2.668256239883332E-04
 8.488400000000E+02  6.301004647553429E-03  2.688305735444664E-04
 8.488600000000E+02  6.323491594038353E-03  2.708586820723604E-04
 8.488800000000E+02  6.346146393937619E-03  2.729103116384408E-04
 8.489000000000E+02  6.368971000521224E-03  2.749858314593146E-04
 8.489200000000E+02  6.391967397335930E-03  2.770856180727591E-04
 8.489400000000E+02  6.415137598804578E-03  2.792100555135105E-04
