#Spectra: 1
Emin______Emax       8.427000000000000E+02  8.827000000000000E+02
EminPole__EmaxPole   8.545257847316088E+02  8.771594584177966E+02
dE________Gamma      2.000000000000000E-02  1.000000000000000E-01
Energy               Re[0]                  Im[0]                
 8.427000000000E+02  1.364782805167282E-03  4.146511823394383E-05
 8.427200000000E+02  1.451187677140118E-03  4.191239555525816E-05
 8.427400000000E+02  1.535053634438793E-03  4.235131278867452E-05
 8.427600000000E+02  1.614952155980561E-03  4.277651278414988E-05
 8.427800000000E+02  1.689882593700666E-03  4.318423129090432E-05
 8.428000000000E+02  1.759287139455919E-03  4.357235561548848E-05
 8.428200000000E+02  1.822991810374387E-03  4.394020641949680E-05
 8.428400000000E+02  1.881111417528231E-03  4.428818432587330E-05
 8.428600000000E+02  1.933950876639768E-03  4.461740224944051E-05
 8.428800000000E+02  1.981921661339426E-03  4.492937380996478E-05
 8.429000000000E+02  2.025479912432510E-03  4.522578230386694E-05
 8.429200000000E+02  2.065085184742014E-03  4.550832655446247E-05
 8.429400000000E+02  2.101175624734086E-03  4.577862801855936E-05
 8.429600000000E+02  2.134154859758206E-03  4.603818158342365E-05
 8.429800000000E+02  2.164386578171568E-03  4.628833507392295E-05
 8.430000000000E+02  2.192193804481162E-03  4.653028630173954E-05
 8.430200000000E+02  2.217860816390854E-03  4.676508999948259E-05
 8.430400000000E+02  2.241636380502499E-03  4.699366970227249E-05
 8.430600000000E+02  2.263737498016229E-03  4.721683155769451E-05
 8.430800000000E+02  2.284353193260874E-03  4.743527831844163E-05
 8.431000000000E+02  2.303648094496710E-03  4.764962258000430E-05
 8.431200000000E+02  2.321765688563823E-03  4.786039881886223E-05
 8.431400000000E+02  2.338831208349216E-03  4.806807407565585E-05
 8.431600000000E+02  2.354954155139235E-03  4.827305728887625E-05
 8.431800000000E+02  2.370230480126637E-03  4.847570736773675E-05
 8.432000000000E+02  2.384744459198920E-03  4.867634012993705E-05
 8.432200000000E+02  2.398570297956236E-03  4.887523424078990E-05
 8.432400000000E+02  2.411773502928983E-03  4.907263628674700E-05
 8.432600000000E+02  2.424412052103855E-03  4.926876510586001E-05
 8.432800000000E+02  2.436537394240988E-03  4.946381548434260E-05
 8.433000000000E+02  2.448195302690608E-03  4.965796131444050E-05
 8.433200000000E+02  2.459426605822863E-03  4.985135829552239E-05
 8.433400000000E+02  2.470267812921915E-03  5.004414624821549E-05
 8.433600000000E+02  2.480751651520417E-03  5.023645110077042E-05
 8.433800000000E+02  2.490907529663607E-03  5.042838659761666E-05
 8.434000000000E+02  2.500761934469098E-03  5.062005577220910E-05
 8.434200000000E+02  2.510338776548926E-03  5.081155221959564E-05
 8.434400000000E+02  2.519659688345364E-03  5.100296119852398E-05
 8.434600000000E+02  2.528744283159634E-03  5.119436058818632E-05
 8.434800000000E+02  2.537610380586786E-03  5.138582172075799E-05
 8.435000000000E+02  2.546274203178012E-03  5.157741010757345E-05
 8.435200000000E+02  2.554750548405387E-03  5.176918607402678E-05
 8.435400000000E+02  2.563052939378985E-03  5.196120531595860E-05
 8.435600000000E+02  2.571193757242914E-03  5.215351938836532E-05
 8.435800000000E+02  2.579184357738179E-03  5.234617613562638E-05
 8.436000000000E+02  2.587035174050920E-03  5.253922007109348E-05
 8.436200000000E+02  2.594755807754760E-03  5.273269271272570E-05
 8.436400000000E+02  2.602355109394388E-03  5.292663288049550E-05
 8.436600000000E+02  2.609841250036643E-03  5.312107696046375E-05
 8.436800000000E+02  2.617221784928772E-03  5.331605913974267E-05
 8.437000000000E+02  2.624503710244769E-03  5.351161161596710E-05
 8.437200000000E+02  2.631693513766626E-03  5.370776478440369E-05
 8.437400000000E+02  2.638797220232615E-03  5.390454740540673E-05
 8.437600000000E+02  2.645820431986642E-03  5.410198675455689E-05
 8.437800000000E+02  2.652768365479898E-03  5.430010875752268E-05
 8.438000000000E+02  2.659645884103959E-03  5.449893811141288E-05
 8.438200000000E+02  2.666457527773075E-03  5.469849839416105E-05
 8.438400000000E+02  2.673207539620970E-03  5.489881216329079E-05
 8.438600000000E+02  2.679899890131341E-03  5.509990104524269E-05
 8.438800000000E+02  2.686538298982538E-03  5.530178581629227E-05
 8.439000000000E+02  2.693126254852283E-03  5.550448647597122E-05
 8.439200000000E+02  2.699667033399335E-03  5.570802231378870E-05
 8.439400000000E+02  2.706163713612830E-03  5.591241196995768E-05
 8.439600000000E+02  2.712619192698323E-03  5.611767349074937E-05
 8.439800000000E+02  2.719036199649443E-03  5.632382437902311E-05
 8.440000000000E+02  2.725417307637794E-03  5.653088164042365E-05
 8.440200000000E+02  2.731764945338095E-03  5.673886182567395E-05
 8.440400000000E+02  2.738081407293343E-03  5.694778106935163E-05
 8.440600000000E+02  2.744368863412711E-03  5.715765512548923E-05
 8.440800000000E+02  2.750629367685067E-03  5.736849940030564E-05
 8.441000000000E+02  2.756864866182268E-03  5.758032898233896E-05
 8.441200000000E+02  2.763077204418311E-03  5.779315867022782E-05
 8.441400000000E+02  2.769268134123736E-03  5.800700299835366E-05
 8.441600000000E+02  2.775439319488319E-03  5.822187626055026E-05
 8.441800000000E+02  2.781592342920063E-03  5.843779253204283E-05
 8.442000000000E+02  2.787728710363161E-03  5.865476568978821E-05
 8.442200000000E+02  2.793849856213939E-03  5.887280943134693E-05
 8.442400000000E+02  2.799957147869300E-03  5.909193729242515E-05
 8.442600000000E+02  2.806051889939408E-03  5.931216266319561E-05
 8.442800000000E+02  2.812135328153019E-03  5.953349880350534E-05
 8.443000000000E+02  2.818208652981210E-03  5.975595885706624E-05
 8.443200000000E+02  2.824273003002651E-03  5.997955586470921E-05
 8.443400000000E+02  2.830329468031969E-03  6.020430277678673E-05
 8.443600000000E+02  2.836379092030054E-03  6.043021246478855E-05
 8.443800000000E+02  2.842422875813898E-03  6.065729773223872E-05
 8.444000000000E+02  2.848461779581985E-03  6.088557132493111E-05
 8.444200000000E+02  2.854496725269481E-03  6.111504594055519E-05
 8.444400000000E+02  2.860528598746614E-03  6.134573423776511E-05
 8.444600000000E+02  2.866558251872131E-03  6.157764884473049E-05
 8.444800000000E+02  2.872586504413131E-03  6.181080236721559E-05
 8.445000000000E+02  2.878614145840845E-03  6.204520739621882E-05
 8.445200000000E+02  2.884641937012134E-03  6.228087651521050E-05
 8.445400000000E+02  2.890670611744795E-03  6.251782230699870E-05
 8.445600000000E+02  2.896700878294475E-03  6.275605736024877E-05
 8.445800000000E+02  2.902733420740386E-03  6.299559427568987E-05
 8.446000000000E+02  2.908768900286353E-03  6.323644567202411E-05
 8.446200000000E+02  2.914807956483084E-03  6.347862419156938E-05
 8.446400000000E+02  2.920851208377298E-03  6.372214250564788E-05
 8.446600000000E+02  2.926899255592701E-03  6.396701331974436E-05
 8.446800000000E+02  2.932952679347721E-03  6.421324937845317E-05
 8.447000000000E+02  2.939012043413980E-03  6.446086347022286E-05
 8.447200000000E+02  2.945077895019844E-03  6.470986843192149E-05
 8.447400000000E+02  2.951150765702484E-03  6.496027715323050E-05
 8.447600000000E+02  2.957231172112001E-03  6.521210258088359E-05
 8.447800000000E+02  2.963319616770813E-03  6.546535772276052E-05
 8.448000000000E+02  2.969416588791057E-03  6.572005565184784E-05
 8.448200000000E+02  2.975522564552816E-03  6.597620951007390E-05
 8.448400000000E+02  2.981638008345790E-03  6.623383251203384E-05
 8.448600000000E+02  2.987763372976504E-03  6.649293794860698E-05
 8.448800000000E+02  2.993899100343452E-03  6.675353919047789E-05
 8.449000000000E+02  3.000045621982031E-03  6.701564969156774E-05
 8.449200000000E+02  3.006203359581207E-03  6.727928299238688E-05
 8.449400000000E+02  3.012372725473618E-03  6.754445272330675E-05
 8.449600000000E+02  3.018554123100816E-03  6.781117260776718E-05
 8.449800000000E+02  3.024747947455027E-03  6.807945646542004E-05
 8.450000000000E+02  3.030954585498912E-03  6.834931821521322E-05
 8.450200000000E+02  3.037174416564753E-03  6.862077187842350E-05
 8.450400000000E+02  3.043407812733882E-03  6.889383158164200E-05
 8.450600000000E+02  3.049655139198184E-03  6.916851155971679E-05
 8.450800000000E+02  3.055916754604014E-03  6.944482615865384E-05
 8.451000000000E+02  3.062193011379961E-03  6.972278983848889E-05
 8.451200000000E+02  3.068484256049406E-03  7.000241717612173E-05
 8.451400000000E+02  3.074790829528377E-03  7.028372286812967E-05
 8.451600000000E+02  3.081113067410070E-03  7.056672173354995E-05
 8.451800000000E+02  3.087451300236251E-03  7.085142871664942E-05
 8.452000000000E+02  3.093805853756661E-03  7.113785888966876E-05
 8.452200000000E+02  3.100177049176927E-03  7.142602745555915E-05
 8.452400000000E+02  3.106565203395632E-03  7.171594975070069E-05
 8.452600000000E+02  3.112970629231079E-03  7.200764124761500E-05
 8.452800000000E+02  3.119393635638452E-03  7.230111755767151E-05
 8.453000000000E+02  3.125834527917809E-03  7.259639443378597E-05
 8.453200000000E+02  3.132293607913396E-03  7.289348777312012E-05
 8.453400000000E+02  3.138771174204740E-03  7.319241361977911E-05
 8.453600000000E+02  3.145267522289995E-03  7.349318816751255E-05
 8.453800000000E+02  3.151782944761927E-03  7.379582776241927E-05
 8.454000000000E+02  3.158317731476998E-03  7.410034890565675E-05
 8.454200000000E+02  3.164872169717691E-03  7.440676825616056E-05
 8.454400000000E+02  3.171446544348843E-03  7.471510263337213E-05
 8.454600000000E+02  3.178041137967701E-03  7.502536901997873E-05
 8.454800000000E+02  3.184656231048719E-03  7.533758456466603E-05
 8.455000000000E+02  3.191292102082720E-03  7.565176658488591E-05
 8.455200000000E+02  3.197949027711201E-03  7.596793256964038E-05
 8.455400000000E+02  3.204627282855754E-03  7.628610018228359E-05
 8.455600000000E+02  3.211327140842919E-03  7.660628726334307E-05
 8.455800000000E+02  3.218048873524735E-03  7.692851183336064E-05
 8.456000000000E+02  3.224792751395225E-03  7.725279209576068E-05
 8.456200000000E+02  3.231559043702920E-03  7.757914643973371E-05
 8.456400000000E+02  3.238348018559710E-03  7.790759344315445E-05
 8.456600000000E+02  3.245159943046159E-03  7.823815187551689E-05
 8.456800000000E+02  3.251995083313559E-03  7.857084070090653E-05
 8.457000000000E+02  3.258853704682714E-03  7.890567908099481E-05
 8.457200000000E+02  3.265736071739754E-03  7.924268637806751E-05
 8.457400000000E+02  3.272642448429169E-03  7.958188215808220E-05
 8.457600000000E+02  3.279573098143916E-03  7.992328619376214E-05
 8.457800000000E+02  3.286528283813200E-03  8.026691846772215E-05
 8.458000000000E+02  3.293508267987658E-03  8.061279917562923E-05
 8.458200000000E+02  3.300513312922199E-03  8.096094872940329E-05
 8.458400000000E+02  3.307543680656748E-03  8.131138776045230E-05
 8.458600000000E+02  3.314599633094758E-03  8.166413712294776E-05
 8.458800000000E+02  3.321681432079860E-03  8.201921789714331E-05
 8.459000000000E+02  3.328789339470511E-03  8.237665139272941E-05
 8.459200000000E+02  3.335923617212905E-03  8.273645915223811E-05
 8.459400000000E+02  3.343084527412264E-03  8.309866295448609E-05
 8.459600000000E+02  3.350272332402236E-03  8.346328481806393E-05
 8.459800000000E+02  3.357487294813208E-03  8.383034700487816E-05
 8.460000000000E+02  3.364729677638687E-03  8.419987202373088E-05
 8.460200000000E+02  3.371999744300711E-03  8.457188263395875E-05
 8.460400000000E+02  3.379297758713666E-03  8.494640184911523E-05
 8.460600000000E+02  3.386623985347141E-03  8.532345294070892E-05
 8.460800000000E+02  3.393978689287356E-03  8.570305944199221E-05
 8.461000000000E+02  3.401362136297685E-03  8.608524515180498E-05
 8.461200000000E+02  3.408774592878078E-03  8.647003413847661E-05
 8.461400000000E+02  3.416216326323516E-03  8.685745074377859E-05
 8.461600000000E+02  3.423687604781519E-03  8.724751958694447E-05
 8.461800000000E+02  3.431188697308849E-03  8.764026556874033E-05
 8.462000000000E+02  3.438719873927335E-03  8.803571387560234E-05
 8.462200000000E+02  3.446281405678990E-03  8.843388998383497E-05
 8.462400000000E+02  3.453873564680376E-03  8.883481966387131E-05
 8.462600000000E+02  3.461496624176403E-03  8.923852898460208E-05
 8.462800000000E+02  3.469150858593303E-03  8.964504431777012E-05
 8.463000000000E+02  3.476836543591239E-03  9.005439234242939E-05
 8.463200000000E+02  3.484553956116229E-03  9.046660004948052E-05
 8.463400000000E+02  3.492303374451750E-03  9.088169474627025E-05
 8.463600000000E+02  3.500085078269643E-03  9.129970406127131E-05
 8.463800000000E+02  3.507899348680815E-03  9.172065594882875E-05
 8.464000000000E+02  3.515746468285390E-03  9.214457869398770E-05
 8.464200000000E+02  3.523626721222718E-03  9.257150091739738E-05
 8.464400000000E+02  3.531540393220840E-03  9.300145158029342E-05
 8.464600000000E+02  3.539487771645841E-03  9.343445998956155E-05
 8.464800000000E+02  3.547469145550867E-03  9.387055580288369E-05
 8.465000000000E+02  3.555484805724990E-03  9.430976903396977E-05
 8.465200000000E+02  3.563535044741824E-03  9.475213005787229E-05
 8.465400000000E+02  3.571620157008030E-03  9.519766961639383E-05
 8.465600000000E+02  3.579740438811680E-03  9.564641882357921E-05
 8.465800000000E+02  3.587896188370516E-03  9.609840917130422E-05
 8.466000000000E+02  3.596087705880135E-03  9.655367253495247E-05
 8.466200000000E+02  3.604315293562153E-03  9.701224117919269E-05
 8.466400000000E+02  3.612579255712286E-03  9.747414776385216E-05
 8.466600000000E+02  3.620879898748561E-03  9.793942534988744E-05
 8.466800000000E+02  3.629217531259394E-03  9.840810740546035E-05
 8.467000000000E+02  3.637592464051859E-03  9.888022781211455E-05
 8.467200000000E+02  3.646005010200010E-03  9.935582087106149E-05
 8.467400000000E+02  3.654455485093213E-03  9.983492130957081E-05
 8.467600000000E+02  3.662944206484715E-03  1.003175642874740E-04
 8.467800000000E+02  3.671471494540333E-03  1.008037854037787E-04
 8.468000000000E+02  3.680037671887308E-03  1.012936207034026E-04
 8.468200000000E+02  3.688643063663292E-03  1.017871066840169E-04
 8.468400000000E+02  3.697287997565670E-03  1.022842803030185E-04
 8.468600000000E+02  3.705972803901055E-03  1.027851789846187E-04
 8.468800000000E+02  3.714697815634977E-03  1.032898406270598E-04
 8.469000000000E+02  3.723463368442046E-03  1.037983036099584E-04
 8.469200000000E+02  3.732269800756140E-03  1.043106068017785E-04
 8.469400000000E+02  3.741117453821179E-03  1.048267895674424E-04
 8.469600000000E+02  3.750006671742061E-03  1.053468917760682E-04
 8.469800000000E+02  3.758937801536092E-03  1.058709538088571E-04
 8.470000000000E+02  3.767911193184652E-03  1.063990165671141E-04
 8.470200000000E+02  3.776927199685413E-03  1.069311214804187E-04
 8.470400000000E+02  3.785986177104868E-03  1.074673105149402E-04
 8.470600000000E+02  3.795088484631428E-03  1.080076261819056E-04
 8.470800000000E+02  3.804234484628778E-03  1.085521115462237E-04
 8.471000000000E+02  3.813424542690001E-03  1.091008102352609E-04
 8.471200000000E+02  3.822659027691921E-03  1.096537664477848E-04
 8.471400000000E+02  3.831938311850172E-03  1.102110249630689E-04
 8.471600000000E+02  3.841262770774677E-03  1.107726311501632E-04
 8.471800000000E+02  3.850632783525896E-03  1.113386309773415E-04
 8.472000000000E+02  3.860048732671336E-03  1.119090710217192E-04
 8.472200000000E+02  3.869511004342956E-03  1.124839984790530E-04
 8.472400000000E+02  3.879019988295091E-03  1.130634611737228E-04
 8.472600000000E+02  3.888576077963032E-03  1.136475075688983E-04
 8.472800000000E+02  3.898179670522184E-03  1.142361867769025E-04
 8.473000000000E+02  3.907831166948109E-03  1.148295485697619E-04
 8.473200000000E+02  3.917530972077062E-03  1.154276433899640E-04
 8.473400000000E+02  3.927279494667439E-03  1.160305223614142E-04
 8.473600000000E+02  3.937077147461854E-03  1.166382373006021E-04
 8.473800000000E+02  3.946924347250063E-03  1.172508407279798E-04
 8.474000000000E+02  3.956821514932616E-03  1.178683858795606E-04
 8.474200000000E+02  3.966769075585435E-03  1.184909267187354E-04
 8.474400000000E+02  3.976767458525033E-03  1.191185179483212E-04
 8.474600000000E+02  3.986817097374895E-03  1.197512150228396E-04
 8.474800000000E+02  3.996918430132447E-03  1.203890741610318E-04
 8.475000000000E+02  4.007071899237106E-03  1.210321523586191E-04
 8.475200000000E+02  4.017277951639200E-03  1.216805074013105E-04
 8.475400000000E+02  4.027537038870019E-03  1.223341978780630E-04
 8.475600000000E+02  4.037849617112315E-03  1.229932831946040E-04
 8.475800000000E+02  4.048216147272591E-03  1.236578235872170E-04
 8.476000000000E+02  4.058637095053767E-03  1.243278801367996E-04
 8.476200000000E+02  4.069112931029256E-03  1.250035147832004E-04
 8.476400000000E+02  4.079644130717880E-03  1.256847903398373E-04
 8.476600000000E+02  4.090231174660209E-03  1.263717705086093E-04
 8.476800000000E+02  4.100874548495686E-03  1.270645198951026E-04
 8.477000000000E+02  4.111574743041115E-03  1.277631040241035E-04
 8.477200000000E+02  4.122332254370324E-03  1.284675893554197E-04
 8.477400000000E+02  4.133147583894997E-03  1.291780433000213E-04
 8.477600000000E+02  4.144021238446720E-03  1.298945342365059E-04
 8.477800000000E+02  4.154953730360452E-03  1.306171315278998E-04
 8.478000000000E+02  4.165945577559042E-03  1.313459055387979E-04
 8.478200000000E+02  4.176997303639397E-03  1.320809276528495E-04
 8.478400000000E+02  4.188109437959725E-03  1.328222702906103E-04
 8.478600000000E+02  4.199282515728317E-03  1.335700069277460E-04
 8.478800000000E+02  4.210517078093675E-03  1.343242121136243E-04
 8.479000000000E+02  4.221813672236385E-03  1.350849614902789E-04
 8.479200000000E+02  4.233172851461941E-03  1.358523318117721E-04
 8.479400000000E+02  4.244595175295639E-03  1.366264009639542E-04
 8.479600000000E+02  4.256081209578646E-03  1.374072479846360E-04
 8.479800000000E+02  4.267631526565951E-03  1.381949530841827E-04
 8.480000000000E+02  4.279246705025687E-03  1.389895976665348E-04
 8.480200000000E+02  4.290927330340329E-03  1.397912643506744E-04
 8.480400000000E+02  4.302673994609508E-03  1.406000369925402E-04
 8.480600000000E+02  4.314487296754601E-03  1.414160007074066E-04
 8.480800000000E+02  4.326367842624985E-03  1.422392418927370E-04
 8.481000000000E+02  4.338316245106305E-03  1.430698482515178E-04
 8.481200000000E+02  4.350333124230520E-03  1.439079088160983E-04
 8.481400000000E+02  4.362419107287886E-03  1.447535139725330E-04
 8.481600000000E+02  4.374574828940612E-03  1.456067554854475E-04
 8.481800000000E+02  4.386800931339085E-03  1.464677265234379E-04
 8.482000000000E+02  4.399098064239663E-03  1.473365216850240E-04
 8.482200000000E+02  4.411466885124599E-03  1.482132370251571E-04
 8.482400000000E+02  4.423908059324335E-03  1.490979700823038E-04
 8.482600000000E+02  4.436422260141741E-03  1.499908199061285E-04
 8.482800000000E+02  4.449010168978661E-03  1.508918870857667E-04
 8.483000000000E+02  4.461672475464902E-03  1.518012737787286E-04
 8.483200000000E+02  4.474409877589156E-03  1.527190837404362E-04
 8.483400000000E+02  4.487223081832786E-03  1.536454223544083E-04
 8.483600000000E+02  4.500112803305572E-03  1.545803966631147E-04
 8.483800000000E+02  4.513079765884441E-03  1.555241153995181E-04
 8.484000000000E+02  4.526124702354388E-03  1.564766890193159E-04
 8.484200000000E+02  4.539248354552006E-03  1.574382297339033E-04
 8.484400000000E+02  4.552451473511968E-03  1.584088515440744E-04
 8.484600000000E+02  4.565734819615982E-03  1.593886702744791E-04
 8.484800000000E+02  4.579099162744591E-03  1.603778036088650E-04
 8.485000000000E+02  4.592545282431890E-03  1.613763711261089E-04
 8.485200000000E+02  4.606073968023113E-03  1.623844943370675E-04
 8.485400000000E+02  4.619686018835272E-03  1.634022967222738E-04
 8.485600000000E+02  4.633382244320658E-03  1.644299037704882E-04
 8.485800000000E+02  4.647163464233797E-03  1.654674430181370E-04
 8.486000000000E+02  4.661030508801237E-03  1.665150440896592E-04
 8.486200000000E+02  4.674984218895018E-03  1.675728387387822E-04
 8.486400000000E+02  4.689025446209087E-03  1.686409608907548E-04
