#Spectra: 1
Emin______Emax      -1.473294401931661E+01  2.526705598068339E+01
EminPole__EmaxPole  -4.657497163223950E+00  1.575729720431278E+01
dE________Gamma      4.000000000000000E-02  1.000000000000000E-01
Energy               Re[0]                  Im[0]                
-1.473294401932E+01  3.509524383225117E-03  1.212573243400667E-04
-1.469294401932E+01  3.926934944872668E-03  1.239205418930333E-04
-1.465294401932E+01  4.300738973793126E-03  1.264099898463189E-04
-1.461294401932E+01  4.619422494549615E-03  1.286748820573537E-04
-1.457294401932E+01  4.884520682003400E-03  1.307212134239033E-04
-1.453294401932E+01  5.103723257080233E-03  1.325818727466993E-04
-1.449294401932E+01  5.285950441633741E-03  1.342952459155494E-04
-1.445294401932E+01  5.439160041301429E-03  1.358956625976151E-04
-1.441294401932E+01  5.569767828591084E-03  1.374108506617926E-04
-1.437294401932E+01  5.682731775560897E-03  1.388622793853202E-04
-1.433294401932E+01  5.781824687791169E-03  1.402663264851803E-04
-1.429294401932E+01  5.869911739488063E-03  1.416354709076739E-04
-1.425294401932E+01  5.949179327850188E-03  1.429792775377641E-04
-1.421294401932E+01  6.021309667991167E-03  1.443051486940195E-04
-1.417294401932E+01  6.087609814342252E-03  1.456188794596706E-04
-1.413294401932E+01  6.149105923635149E-03  1.469250633348244E-04
-1.409294401932E+01  6.206612044173495E-03  1.482273881871783E-04
-1.405294401932E+01  6.260780529244749E-03  1.495288530804068E-04
-1.401294401932E+01  6.312139247570203E-03  1.508319282694642E-04
-1.397294401932E+01  6.361119285679515E-03  1.521386742824775E-04
-1.393294401932E+01  6.408075763713455E-03  1.534508313820345E-04
-1.389294401932E+01  6.453303625341995E-03  1.547698874191993E-04
-1.385294401932E+01  6.497049728237581E-03  1.560971297910028E-04
-1.381294401932E+01  6.539522186930982E-03  1.574336855979453E-04
-1.377294401932E+01  6.580897656407830E-03  1.587805529630380E-04
-1.373294401932E+01  6.621327058470627E-03  1.601386256714417E-04
-1.369294401932E+01  6.660940120181651E-03  1.615087127184008E-04
-1.365294401932E+01  6.699848998441759E-03  1.628915539432037E-04
-1.361294401932E+01  6.738151195817490E-03  1.642878326302737E-04
-1.357294401932E+01  6.775931922415524E-03  1.656981857421259E-04
-1.353294401932E+01  6.813266021577114E-03  1.671232122897392E-04
-1.349294401932E+01  6.850219549696347E-03  1.685634802278489E-04
-1.345294401932E+01  6.886851079920565E-03  1.700195321744253E-04
-1.341294401932E+01  6.923212784009476E-03  1.714918901871006E-04
-1.337294401932E+01  6.959351334871688E-03  1.729810597788729E-04
-1.333294401932E+01  6.995308663307426E-03  1.744875333168171E-04
-1.329294401932E+01  7.031122595560676E-03  1.760117929178716E-04
-1.325294401932E+01  7.066827392918051E-03  1.775543129327289E-04
-1.321294401932E+01  7.102454210403271E-03  1.791155620909637E-04
-1.317294401932E+01  7.138031488329553E-03  1.806960053664188E-04
-1.313294401932E+01  7.173585287877637E-03  1.822961056107919E-04
-1.309294401932E+01  7.209139579806392E-03  1.839163249945518E-04
-1.305294401932E+01  7.244716493758764E-03  1.855571262872790E-04
-1.301294401932E+01  7.280336534306223E-03  1.872189740039060E-04
-1.297294401932E+01  7.316018768810860E-03  1.889023354387726E-04
-1.293294401932E+01  7.351780991322335E-03  1.906076816057703E-04
-1.289294401932E+01  7.387639866025919E-03  1.923354880998350E-04
-1.285294401932E+01  7.423611053183485E-03  1.940862358926369E-04
-1.281294401932E+01  7.459709320039566E-03  1.958604120732991E-04
-1.277294401932E+01  7.495948638776276E-03  1.976585105433507E-04
-1.273294401932E+01  7.532342273280068E-03  1.994810326737621E-04
-1.269294401932E+01  7.568902856216667E-03  2.013284879307836E-04
-1.265294401932E+01  7.605642457688422E-03  2.032013944763852E-04
-1.261294401932E+01  7.642572646562744E-03  2.051002797483186E-04
-1.257294401932E+01  7.679704545404169E-03  2.070256810241691E-04
-1.253294401932E+01  7.717048879811362E-03  2.089781459732443E-04
-1.249294401932E+01  7.754616022849666E-03  2.109582331996625E-04
-1.245294401932E+01  7.792416035175942E-03  2.129665127796654E-04
-1.241294401932E+01  7.830458701372615E-03  2.150035667958243E-04
-1.237294401932E+01  7.868753562940110E-03  2.170699898705632E-04
-1.233294401932E+01  7.907309948338518E-03  2.191663897012052E-04
-1.229294401932E+01  7.946137000420262E-03  2.212933875985326E-04
-1.225294401932E+01  7.985243701552172E-03  2.234516190307404E-04
-1.221294401932E+01  8.024638896689546E-03  2.256417341744893E-04
-1.217294401932E+01  8.064331314632290E-03  2.278643984746991E-04
-1.213294401932E+01  8.104329587666402E-03  2.301202932145953E-04
-1.209294401932E+01  8.144642269770699E-03  2.324101160975102E-04
-1.205294401932E+01  8.185277853546988E-03  2.347345818418167E-04
-1.201294401932E+01  8.226244786015429E-03  2.370944227903945E-04
-1.197294401932E+01  8.267551483400205E-03  2.394903895359669E-04
-1.193294401932E+01  8.309206345017979E-03  2.419232515636306E-04
-1.189294401932E+01  8.351217766368215E-03  2.443937979118997E-04
-1.185294401932E+01  8.393594151515972E-03  2.469028378535896E-04
-1.181294401932E+01  8.436343924847446E-03  2.494512015978435E-04
-1.177294401932E+01  8.479475542270761E-03  2.520397410146747E-04
-1.173294401932E+01  8.522997501927546E-03  2.546693303833470E-04
-1.169294401932E+01  8.566918354474620E-03  2.573408671660200E-04
-1.165294401932E+01  8.611246712989977E-03  2.600552728080451E-04
-1.161294401932E+01  8.655991262552171E-03  2.628134935664049E-04
-1.157294401932E+01  8.701160769537418E-03  2.656165013677826E-04
-1.153294401932E+01  8.746764090676548E-03  2.684652946978290E-04
-1.149294401932E+01  8.792810181909147E-03  2.713608995232423E-04
-1.145294401932E+01  8.839308107070067E-03  2.743043702483372E-04
-1.141294401932E+01  8.886267046440608E-03  2.772967907078430E-04
-1.137294401932E+01  8.933696305195216E-03  2.803392751977658E-04
-1.133294401932E+01  8.981605321771099E-03  2.834329695461944E-04
-1.129294401932E+01  9.030003676188598E-03  2.865790522260611E-04
-1.125294401932E+01  9.078901098345872E-03  2.897787355119073E-04
-1.121294401932E+01  9.128307476313375E-03  2.930332666828619E-04
-1.117294401932E+01  9.178232864649508E-03  2.963439292740906E-04
-1.113294401932E+01  9.228687492759827E-03  2.997120443791313E-04
-1.109294401932E+01  9.279681773321054E-03  3.031389720056353E-04
-1.105294401932E+01  9.331226310789130E-03  3.066261124871495E-04
-1.101294401932E+01  9.383331910012636E-03  3.101749079537377E-04
-1.097294401932E+01  9.436009584969200E-03  3.137868438643746E-04
-1.093294401932E+01  9.489270567645284E-03  3.174634506042006E-04
-1.089294401932E+01  9.543126317077528E-03  3.212063051498918E-04
-1.085294401932E+01  9.597588528574322E-03  3.250170328065886E-04
-1.081294401932E+01  9.652669143136259E-03  3.288973090199980E-04
-1.077294401932E+01  9.708380357094377E-03  3.328488612675055E-04
-1.073294401932E+01  9.764734631984873E-03  3.368734710323309E-04
-1.069294401932E+01  9.821744704679178E-03  3.409729758649966E-04
-1.065294401932E+01  9.879423597788912E-03  3.451492715366294E-04
-1.061294401932E+01  9.937784630365251E-03  3.494043142888675E-04
-1.057294401932E+01  9.996841428912931E-03  3.537401231854123E-04
-1.053294401932E+01  1.005660793873947E-02  3.581587825705873E-04
-1.049294401932E+01  1.011709843566063E-02  3.626624446405532E-04
-1.045294401932E+01  1.017832753808460E-02  3.672533321331914E-04
-1.041294401932E+01  1.024031021949639E-02  3.719337411429826E-04
-1.037294401932E+01  1.030306182136725E-02  3.767060440676586E-04
-1.033294401932E+01  1.036659806651238E-02  3.815726926937486E-04
-1.029294401932E+01  1.043093507292241E-02  3.865362214286087E-04
-1.025294401932E+01  1.049608936809566E-02  3.915992506870146E-04
-1.021294401932E+01  1.056207790389775E-02  3.967644904408332E-04
-1.017294401932E+01  1.062891807197818E-02  4.020347439408889E-04
-1.013294401932E+01  1.069662771977347E-02  4.074129116206825E-04
-1.009294401932E+01  1.076522516712835E-02  4.129019951922396E-04
-1.005294401932E+01  1.083472922356904E-02  4.185051019450048E-04
-1.001294401932E+01  1.090515920626168E-02  4.242254492594504E-04
-9.972944019317E+00  1.097653495869467E-02  4.300663693477667E-04
-9.932944019317E+00  1.104887687012138E-02  4.360313142348475E-04
-9.892944019317E+00  1.112220589580552E-02  4.421238609936487E-04
-9.852944019317E+00  1.119654357811036E-02  4.483477172499273E-04
-9.812944019317E+00  1.127191206847867E-02  4.547067269723589E-04
-9.772944019317E+00  1.134833415034920E-02  4.612048765651583E-04
-9.732944019317E+00  1.142583326306176E-02  4.678463012814196E-04
-9.692944019317E+00  1.150443352680316E-02  4.746352919767146E-04
-9.652944019317E+00  1.158415976865062E-02  4.815763022237716E-04
-9.612944019317E+00  1.166503754977242E-02  4.886739558105468E-04
-9.572944019317E+00  1.174709319384934E-02  4.959330546455600E-04
-9.532944019317E+00  1.183035381678332E-02  5.033585870960187E-04
-9.492944019317E+00  1.191484735776483E-02  5.109557367861261E-04
-9.452944019317E+00  1.200060261177496E-02  5.187298918848904E-04
-9.412944019317E+00  1.208764926360146E-02  5.266866549149023E-04
-9.372944019317E+00  1.217601792345483E-02  5.348318531158175E-04
-9.332944019317E+00  1.226574016427448E-02  5.431715493988097E-04
-9.292944019317E+00  1.235684856082209E-02  5.517120539308928E-04
-9.252944019317E+00  1.244937673066432E-02  5.604599363909652E-04
-9.212944019317E+00  1.254335937715386E-02  5.694220389425701E-04
-9.172944019317E+00  1.263883233452667E-02  5.786054899717825E-04
-9.132944019317E+00  1.273583261523806E-02  5.880177186423972E-04
-9.092944019317E+00  1.283439845967138E-02  5.976664703245204E-04
-9.052944019317E+00  1.293456938836014E-02  6.075598229572259E-04
-9.012944019317E+00  1.303638625687508E-02  6.177062044105120E-04
-8.972944019317E+00  1.313989131353761E-02  6.281144109171719E-04
-8.932944019317E+00  1.324512826013231E-02  6.387936266507180E-04
-8.892944019317E+00  1.335214231580354E-02  6.497534445317242E-04
-8.852944019317E+00  1.346098028433368E-02  6.610038883516861E-04
-8.812944019317E+00  1.357169062501550E-02  6.725554363108420E-04
-8.772944019317E+00  1.368432352734549E-02  6.844190460743387E-04
-8.732944019317E+00  1.379893098978207E-02  6.966061814600882E-04
-8.692944019317E+00  1.391556690283042E-02  7.091288408810513E-04
-8.652944019317E+00  1.403428713673449E-02  7.219995876753256E-04
-8.612944019317E+00  1.415514963407857E-02  7.352315824689711E-04
-8.572944019317E+00  1.427821450762287E-02  7.488386177289941E-04
-8.532944019317E+00  1.440354414372204E-02  7.628351546780264E-04
-8.492944019317E+00  1.453120331170383E-02  7.772363627572671E-04
-8.452944019317E+00  1.466125927961225E-02  7.920581618412441E-04
-8.412944019317E+00  1.479378193675252E-02  8.073172674262621E-04
-8.372944019317E+00  1.492884392350978E-02  8.230312390349398E-04
-8.332944019317E+00  1.506652076895051E-02  8.392185321015573E-04
-8.292944019317E+00  1.520689103675651E-02  8.558985536278971E-04
-8.252944019317E+00  1.535003648008755E-02  8.730917219265427E-04
-8.212944019317E+00  1.549604220601531E-02  8.908195307990754E-04
-8.172944019317E+00  1.564499685022730E-02  9.091046185301245E-04
-8.132944019317E+00  1.579699276275569E-02  9.279708421155371E-04
-8.092944019317E+00  1.595212620555209E-02  9.474433571843184E-04
-8.052944019317E+00  1.611049756279721E-02  9.675487041198607E-04
-8.012944019317E+00  1.627221156491388E-02  9.883149009372407E-04
-7.972944019317E+00  1.643737752733534E-02  1.009771543530175E-03
-7.932944019317E+00  1.660610960517181E-02  1.031949913964835E-03
-7.892944019317E+00  1.677852706502515E-02  1.054883097568494E-03
-7.852944019317E+00  1.695475457530948E-02  1.078606109640252E-03
-7.812944019317E+00  1.713492251656144E-02  1.103156032699788E-03
-7.772944019317E+00  1.731916731336246E-02  1.128572165289351E-03
-7.732944019317E+00  1.750763178964370E-02  1.154896183455710E-03
-7.692944019317E+00  1.770046554931317E-02  1.182172316164103E-03
-7.652944019317E+00  1.789782538432940E-02  1.210447536036972E-03
-7.612944019317E+00  1.809987571255178E-02  1.239771766969244E-03
-7.572944019317E+00  1.830678904792268E-02  1.270198110350832E-03
-7.532944019317E+00  1.851874650579209E-02  1.301783091829654E-03
-7.492944019317E+00  1.873593834647396E-02  1.334586930777297E-03
-7.452944019317E+00  1.895856456043684E-02  1.368673834879323E-03
-7.412944019317E+00  1.918683549887893E-02  1.404112322566618E-03
-7.372944019317E+00  1.942097255382553E-02  1.440975576339708E-03
-7.332944019317E+00  1.966120889232284E-02  1.479341830419118E-03
-7.292944019317E+00  1.990779024978161E-02  1.519294796590774E-03
-7.252944019317E+00  2.016097578807342E-02  1.560924132612773E-03
-7.212944019317E+00  2.042103902458531E-02  1.604325958119774E-03
-7.172944019317E+00  2.068826883912340E-02  1.649603423614803E-03
-7.132944019317E+00  2.096297056632371E-02  1.696867338889306E-03
-7.092944019317E+00  2.124546718209088E-02  1.746236868077199E-03
-7.052944019317E+00  2.153610059355725E-02  1.797840299546535E-03
-7.012944019317E+00  2.183523304315371E-02  1.851815899985844E-03
-6.972944019317E+00  2.214324863862202E-02  1.908312863379000E-03
-6.932944019317E+00  2.246055502219889E-02  1.967492367114213E-03
-6.892944019317E+00  2.278758519379235E-02  2.029528749278474E-03
-6.852944019317E+00  2.312479950476795E-02  2.094610823295485E-03
-6.812944019317E+00  2.347268784100949E-02  2.162943348527020E-03
-6.772944019317E+00  2.383177201624051E-02  2.234748678344306E-03
-6.732944019317E+00  2.420260839924028E-02  2.310268610566182E-03
-6.692944019317E+00  2.458579080160092E-02  2.389766469155227E-03
-6.652944019317E+00  2.498195365611654E-02  2.473529450780544E-03
-6.612944019317E+00  2.539177551982006E-02  2.561871275442587E-03
-6.572944019317E+00  2.581598294018101E-02  2.655135186991167E-03
-6.532944019317E+00  2.625535472811811E-02  2.753697357271966E-03
-6.492944019317E+00  2.671072668737155E-02  2.857970757079829E-03
-6.452944019317E+00  2.718299685652702E-02  2.968409568415323E-03
-6.412944019317E+00  2.767313132772384E-02  3.085514226147873E-03
-6.372944019317E+00  2.818217071495011E-02  3.209837193604167E-03
-6.332944019317E+00  2.871123735499098E-02  3.341989596469346E-03
-6.292944019317E+00  2.926154333574743E-02  3.482648863524651E-03
-6.252944019317E+00  2.983439945995414E-02  3.632567552170714E-03
-6.212944019317E+00  3.043122526752951E-02  3.792583572696094E-03
-6.172944019317E+00  3.105356025708146E-02  3.963632069491189E-03
-6.132944019317E+00  3.170307646667703E-02  4.146759271977453E-03
-6.092944019317E+00  3.238159259601972E-02  4.343138695613469E-03
-6.052944019317E+00  3.309108987674279E-02  4.554090157416934E-03
-6.012944019317E+00  3.383372992454800E-02  4.781102175490444E-03
-5.972944019317E+00  3.461187483607788E-02  5.025858453883265E-03
-5.932944019317E+00  3.542810982392974E-02  5.290269320371901E-03
-5.892944019317E+00  3.628526871368280E-02  5.576509195380279E-03
-5.852944019317E+00  3.718646265463409E-02  5.887061438445471E-03
-5.812944019317E+00  3.813511241685569E-02  6.224772261794517E-03
-5.772944019317E+00  3.913498465413020E-02  6.592915841915657E-03
-5.732944019317E+00  4.019023249394246E-02  6.995273330455958E-03
-5.692944019317E+00  4.130544075387087E-02  7.436229206892121E-03
-5.652944019317E+00  4.248567594962927E-02  7.920889383086467E-03
-5.612944019317E+00  4.373654100806467E-02  8.455226739411580E-03
-5.572944019317E+00  4.506423415640036E-02  9.046261445320879E-03
-5.532944019317E+00  4.647561071232390E-02  9.702285631204314E-03
-5.492944019317E+00  4.797824526581695E-02  1.043314491723952E-02
-5.452944019317E+00  4.958048973146102E-02  1.125059321374901E-02
-5.412944019317E+00  5.129151949135934E-02  1.216874240678740E-02
-5.372944019317E+00  5.312135458853569E-02  1.320463543855371E-02
-5.332944019317E+00  5.508083444362034E-02  1.437898036974850E-02
-5.292944019317E+00  5.718151085861695E-02  1.571709477894039E-02
-5.252944019317E+00  5.943540188256717E-02  1.725012467217990E-02
-5.212944019317E+00  6.185451312840243E-02  1.901661971112633E-02
-5.172944019317E+00  6.444997472365319E-02  2.106456514412604E-02
-5.132944019317E+00  6.723054747638454E-02  2.345398446140009E-02
-5.092944019317E+00  7.020009977392676E-02  2.626022046245289E-02
-5.052944019317E+00  7.335341663636553E-02  2.957794109746103E-02
-5.012944019317E+00  7.666933722533445E-02  3.352572324323883E-02
-4.972944019317E+00  8.009970410111383E-02  3.825058292460488E-02
-4.932944019317E+00  8.355201151771020E-02  4.393073739102239E-02
-4.892944019317E+00  8.686332257403391E-02  5.077268814266617E-02
-4.852944019317E+00  8.976412943883144E-02  5.899479432718457E-02
-4.812944019317E+00  9.183608437037247E-02  6.878401418425485E-02
-4.772944019317E+00  9.248142989163607E-02  8.020915937975714E-02
-4.732944019317E+00  9.094622498951849E-02  9.308525231644406E-02
-4.692944019317E+00  8.645679597774984E-02  1.068293448628065E-01
-4.652944019317E+00  7.848642267521268E-02  1.204222197576138E-01
-4.612944019317E+00  6.703122133080430E-02  1.325985756529170E-01
-4.572944019317E+00  5.266922878172412E-02  1.422122321946016E-01
-4.532944019317E+00  3.634345954566211E-02  1.485008929003494E-01
-4.492944019317E+00  1.912649501350178E-02  1.510862841555121E-01
-4.452944019317E+00  2.162690890635168E-03  1.499351981073559E-01
-4.412944019317E+00 -1.344431320170150E-02  1.454862311604072E-01
-4.372944019317E+00 -2.699293873137171E-02  1.386345638632019E-01
-4.332944019317E+00 -3.840833043839290E-02  1.302920804296226E-01
-4.292944019317E+00 -4.793852023182540E-02  1.209314666136604E-01
-4.252944019317E+00 -5.563444485629232E-02  1.106531646017459E-01
-4.212944019317E+00 -6.122157826628357E-02  9.964445326790940E-02
-4.172944019317E+00 -6.443772478894595E-02  8.844546582000505E-02
-4.132944019317E+00 -6.536184395950430E-02  7.777548308877948E-02
-4.092944019317E+00 -6.441509087918437E-02  6.821595684501928E-02
-4.052944019317E+00 -6.215800530754983E-02  6.006412800457208E-02
-4.012944019317E+00 -5.911286552440934E-02  5.337281143971893E-02
-3.972944019317E+00 -5.569170987049985E-02  4.805319791860496E-02
-3.932944019317E+00 -5.219994351240317E-02  4.395721399158671E-02
-3.892944019317E+00 -4.886860965784852E-02  4.091773131142937E-02
-3.852944019317E+00 -4.588412324872237E-02  3.875231203799803E-02
-3.812944019317E+00 -4.339534543260128E-02  3.724447653815909E-02
-3.772944019317E+00 -4.148482681892010E-02  3.612701891652349E-02
-3.732944019317E+00 -4.011312684141032E-02  3.510560862112082E-02
-3.692944019317E+00 -3.908939820888504E-02  3.394609484160801E-02
-3.652944019317E+00 -3.813418701850095E-02  3.257875690529436E-02
-3.612944019317E+00 -3.701588647224716E-02  3.112007315117763E-02
-3.572944019317E+00 -3.565100290128779E-02  2.978414730702295E-02
-3.532944019317E+00 -3.410466856108568E-02  2.876797612743930E-02
-3.492944019317E+00 -3.253273964670980E-02  2.818827154040364E-02
-3.452944019317E+00 -3.112640683161925E-02  2.806863786185561E-02
-3.412944019317E+00 -3.007560044594862E-02  2.834296841803141E-02
-3.372944019317E+00 -2.953733530635745E-02  2.885940098041814E-02
-3.332944019317E+00 -2.959865880320038E-02  2.939161039162903E-02
-3.292944019317E+00 -3.023684690955593E-02  2.966877865944341E-02
-3.252944019317E+00 -3.128727396415668E-02  2.943593679656594E-02
-3.212944019317E+00 -3.245274575316082E-02  2.854823507006844E-02
-3.172944019317E+00 -3.339630582133651E-02  2.704901893355076E-02
-3.132944019317E+00 -3.387709787698376E-02  2.514965016693396E-02
-3.092944019317E+00 -3.381886090972133E-02  2.311910344392534E-02
-3.052944019317E+00 -3.327834156603587E-02  2.118156300626497E-02
-3.012944019317E+00 -3.237721112940684E-02  1.947839111668339E-02
-2.972944019317E+00 -3.125121709972857E-02  1.807484880663514E-02
-2.932944019317E+00 -3.002378959437546E-02  1.697898408543545E-02
-2.892944019317E+00 -2.879367880574080E-02  1.615871559497399E-02
-2.852944019317E+00 -2.762772210881119E-02  1.555575925518089E-02
