#Spectra: 1
Emin______Emax       8.427000000000000E+02  8.827000000000000E+02
EminPole__EmaxPole   8.532297862235120E+02  8.850568863745270E+02
dE________Gamma      2.000000000000000E-02  1.000000000000000E-01
Energy               Re[0]                  Im[0]                
 8.427000000000E+02  1.850622131289014E-03  5.828716191377347E-05
 8.427200000000E+02  1.967793363186493E-03  5.892558942519441E-05
 8.427400000000E+02  2.081532263203621E-03  5.955245315004818E-05
 8.427600000000E+02  2.189903377723574E-03  6.016022416769568E-05
 8.427800000000E+02  2.291550810497020E-03  6.074361087694716E-05
 8.428000000000E+02  2.385718531097906E-03  6.129964179515760E-05
 8.428200000000E+02  2.472170457202234E-03  6.182735928942962E-05
 8.428400000000E+02  2.551061738506117E-03  6.232732326889263E-05
 8.428600000000E+02  2.622805077920329E-03  6.280109473422192E-05
 8.428800000000E+02  2.687957559976716E-03  6.325079805817002E-05
 8.429000000000E+02  2.747136811746225E-03  6.367879640701554E-05
 8.429200000000E+02  2.800965118139718E-03  6.408747514944867E-05
 8.429400000000E+02  2.850035793921168E-03  6.447911131596620E-05
 8.429600000000E+02  2.894895420305964E-03  6.485580443658232E-05
 8.429800000000E+02  2.936036499883547E-03  6.521944771460989E-05
 8.430000000000E+02  2.973896471752304E-03  6.557172384808309E-05
 8.430200000000E+02  3.008860305738055E-03  6.591411474195385E-05
 8.430400000000E+02  3.041264883204753E-03  6.624791817456568E-05
 8.430600000000E+02  3.071404069022222E-03  6.657426717669937E-05
 8.430800000000E+02  3.099533841827274E-03  6.689414967037890E-05
 8.431000000000E+02  3.125877143136839E-03  6.720842704979583E-05
 8.431200000000E+02  3.150628284858578E-03  6.751785107945140E-05
 8.431400000000E+02  3.173956859594153E-03  6.782307889070621E-05
 8.431600000000E+02  3.196011156508595E-03  6.812468608421486E-05
 8.431800000000E+02  3.216921115618297E-03  6.842317806255566E-05
 8.432000000000E+02  3.236800866706217E-03  6.871899976943789E-05
 8.432200000000E+02  3.255750902898937E-03  6.901254402703143E-05
 8.432400000000E+02  3.273859937615816E-03  6.930415865814554E-05
 8.432600000000E+02  3.291206489728592E-03  6.959415256528067E-05
 8.432800000000E+02  3.307860236858614E-03  6.988280091979746E-05
 8.433000000000E+02  3.323883171627589E-03  7.017034959486562E-05
 8.433200000000E+02  3.339330590810817E-03  7.045701895717961E-05
 8.433400000000E+02  3.354251942921875E-03  7.074300711547892E-05
 8.433600000000E+02  3.368691555865567E-03  7.102849270894867E-05
 8.433800000000E+02  3.382689262927218E-03  7.131363730565023E-05
 8.434000000000E+02  3.396280942491062E-03  7.159858747008152E-05
 8.434200000000E+02  3.409498984443810E-03  7.188347654960570E-05
 8.434400000000E+02  3.422372694167054E-03  7.216842622161335E-05
 8.434600000000E+02  3.434928643299561E-03  7.245354783664408E-05
 8.434800000000E+02  3.447190975006358E-03  7.273894358717684E-05
 8.435000000000E+02  3.459181670284398E-03  7.302470752713177E-05
 8.435200000000E+02  3.470920780822760E-03  7.331092646326480E-05
 8.435400000000E+02  3.482426633089795E-03  7.359768073636541E-05
 8.435600000000E+02  3.493716007610684E-03  7.388504490747744E-05
 8.435800000000E+02  3.504804296803954E-03  7.417308836204537E-05
 8.436000000000E+02  3.515705644246536E-03  7.446187584299400E-05
 8.436200000000E+02  3.526433067816554E-03  7.475146792213114E-05
 8.436400000000E+02  3.536998568808892E-03  7.504192141790363E-05
 8.436600000000E+02  3.547413228819810E-03  7.533328976638441E-05
 8.436800000000E+02  3.557687295943614E-03  7.562562335141277E-05
 8.437000000000E+02  3.567830261610071E-03  7.591896979896582E-05
 8.437200000000E+02  3.577850929209120E-03  7.621337424016238E-05
 8.437400000000E+02  3.587757475494086E-03  7.650887954668792E-05
 8.437600000000E+02  3.597557505622712E-03  7.680552654193314E-05
 8.437800000000E+02  3.607258102581442E-03  7.710335419070392E-05
 8.438000000000E+02  3.616865871642701E-03  7.740239976997740E-05
 8.438200000000E+02  3.626386980420264E-03  7.770269902288101E-05
 8.438400000000E+02  3.635827195017701E-03  7.800428629777701E-05
 8.438600000000E+02  3.645191912702011E-03  7.830719467411115E-05
 8.438800000000E+02  3.654486191482277E-03  7.861145607647541E-05
 8.439000000000E+02  3.663714776926221E-03  7.891710137816195E-05
 8.439200000000E+02  3.672882126508358E-03  7.922416049532192E-05
 8.439400000000E+02  3.681992431748270E-03  7.953266247272901E-05
 8.439600000000E+02  3.691049638367298E-03  7.984263556201231E-05
 8.439800000000E+02  3.700057464666066E-03  8.015410729313280E-05
 8.440000000000E+02  3.709019418301552E-03  8.046710453979105E-05
 8.440200000000E+02  3.717938811623073E-03  8.078165357936856E-05
 8.440400000000E+02  3.726818775708199E-03  8.109778014794746E-05
 8.440600000000E+02  3.735662273224689E-03  8.141550949088357E-05
 8.440800000000E+02  3.744472110230462E-03  8.173486640936832E-05
 8.441000000000E+02  3.753250947012056E-03  8.205587530335670E-05
 8.441200000000E+02  3.762001308051024E-03  8.237856021120673E-05
 8.441400000000E+02  3.770725591198660E-03  8.270294484633288E-05
 8.441600000000E+02  3.779426076131122E-03  8.302905263115809E-05
 8.441800000000E+02  3.788104932149459E-03  8.335690672859696E-05
 8.442000000000E+02  3.796764225382861E-03  8.368653007130602E-05
 8.442200000000E+02  3.805405925447515E-03  8.401794538889191E-05
 8.442400000000E+02  3.814031911608100E-03  8.435117523326180E-05
 8.442600000000E+02  3.822643978484813E-03  8.468624200228127E-05
 8.442800000000E+02  3.831243841344299E-03  8.502316796187702E-05
 8.443000000000E+02  3.839833141009265E-03  8.536197526673349E-05
 8.443200000000E+02  3.848413448418779E-03  8.570268597968449E-05
 8.443400000000E+02  3.856986268867212E-03  8.604532208993053E-05
 8.443600000000E+02  3.865553045948634E-03  8.638990553016426E-05
 8.443800000000E+02  3.874115165229577E-03  8.673645819270331E-05
 8.444000000000E+02  3.882673957672314E-03  8.708500194471006E-05
 8.444200000000E+02  3.891230702827710E-03  8.743555864257516E-05
 8.444400000000E+02  3.899786631816018E-03  8.778815014553176E-05
 8.444600000000E+02  3.908342930111407E-03  8.814279832856443E-05
 8.444800000000E+02  3.916900740145717E-03  8.849952509466582E-05
 8.445000000000E+02  3.925461163744536E-03  8.885835238650424E-05
 8.445200000000E+02  3.934025264408318E-03  8.921930219753478E-05
 8.445400000000E+02  3.942594069450297E-03  8.958239658261142E-05
 8.445600000000E+02  3.951168572000749E-03  8.994765766813284E-05
 8.445800000000E+02  3.959749732888400E-03  9.031510766176494E-05
 8.446000000000E+02  3.968338482406978E-03  9.068476886176630E-05
 8.446200000000E+02  3.976935721975374E-03  9.105666366595744E-05
 8.446400000000E+02  3.985542325698805E-03  9.143081458035573E-05
 8.446600000000E+02  3.994159141837969E-03  9.180724422750717E-05
 8.446800000000E+02  4.002786994192364E-03  9.218597535453685E-05
 8.447000000000E+02  4.011426683403981E-03  9.256703084094660E-05
 8.447200000000E+02  4.020078988186224E-03  9.295043370616944E-05
 8.447400000000E+02  4.028744666483660E-03  9.333620711691825E-05
 8.447600000000E+02  4.037424456566754E-03  9.372437439432808E-05
 8.447800000000E+02  4.046119078066206E-03  9.411495902092523E-05
 8.448000000000E+02  4.054829232950573E-03  9.450798464742556E-05
 8.448200000000E+02  4.063555606451041E-03  9.490347509938977E-05
 8.448400000000E+02  4.072298867936698E-03  9.530145438373717E-05
 8.448600000000E+02  4.081059671743357E-03  9.570194669514063E-05
 8.448800000000E+02  4.089838657959056E-03  9.610497642230615E-05
 8.449000000000E+02  4.098636453168952E-03  9.651056815415969E-05
 8.449200000000E+02  4.107453671161605E-03  9.691874668593718E-05
 8.449400000000E+02  4.116290913600218E-03  9.732953702520174E-05
 8.449600000000E+02  4.125148770659409E-03  9.774296439778646E-05
 8.449800000000E+02  4.134027821631114E-03  9.815905425368028E-05
 8.450000000000E+02  4.142928635500556E-03  9.857783227285781E-05
 8.450200000000E+02  4.151851771494137E-03  9.899932437106602E-05
 8.450400000000E+02  4.160797779601616E-03  9.942355670557336E-05
 8.450600000000E+02  4.169767201073056E-03  9.985055568088834E-05
 8.450800000000E+02  4.178760568893028E-03  1.002803479544538E-04
 8.451000000000E+02  4.187778408232562E-03  1.007129604423234E-04
 8.451200000000E+02  4.196821236880817E-03  1.011484203248296E-04
 8.451400000000E+02  4.205889565657222E-03  1.015867550522398E-04
 8.451600000000E+02  4.214983898805260E-03  1.020279923504189E-04
 8.451800000000E+02  4.224104734368939E-03  1.024721602264927E-04
 8.452000000000E+02  4.233252564553254E-03  1.029192869745215E-04
 8.452200000000E+02  4.242427876069139E-03  1.033694011811911E-04
 8.452400000000E+02  4.251631150463703E-03  1.038225317315185E-04
 8.452600000000E+02  4.260862864437069E-03  1.042787078145876E-04
 8.452800000000E+02  4.270123490146258E-03  1.047379589293077E-04
 8.453000000000E+02  4.279413495496549E-03  1.052003148902058E-04
 8.453200000000E+02  4.288733344421706E-03  1.056658058332587E-04
 8.453400000000E+02  4.298083497152865E-03  1.061344622217590E-04
 8.453600000000E+02  4.307464410477514E-03  1.066063148522316E-04
 8.453800000000E+02  4.316876537988386E-03  1.070813948603951E-04
 8.454000000000E+02  4.326320330323146E-03  1.075597337271716E-04
 8.454200000000E+02  4.335796235395548E-03  1.080413632847602E-04
 8.454400000000E+02  4.345304698618124E-03  1.085263157227598E-04
 8.454600000000E+02  4.354846163117153E-03  1.090146235943590E-04
 8.454800000000E+02  4.364421069940099E-03  1.095063198225908E-04
 8.455000000000E+02  4.374029858256244E-03  1.100014377066551E-04
 8.455200000000E+02  4.383672965550505E-03  1.105000109283140E-04
 8.455400000000E+02  4.393350827810963E-03  1.110020735583624E-04
 8.455600000000E+02  4.403063879710640E-03  1.115076600631752E-04
 8.455800000000E+02  4.412812554783494E-03  1.120168053113396E-04
 8.456000000000E+02  4.422597285594995E-03  1.125295445803703E-04
 8.456200000000E+02  4.432418503907993E-03  1.130459135635139E-04
 8.456400000000E+02  4.442276640843437E-03  1.135659483766413E-04
 8.456600000000E+02  4.452172127036723E-03  1.140896855652408E-04
 8.456800000000E+02  4.462105392790043E-03  1.146171621115023E-04
 8.457000000000E+02  4.472076868220222E-03  1.151484154415081E-04
 8.457200000000E+02  4.482086983402939E-03  1.156834834325223E-04
 8.457400000000E+02  4.492136168513646E-03  1.162224044203925E-04
 8.457600000000E+02  4.502224853964496E-03  1.167652172070577E-04
 8.457800000000E+02  4.512353470538523E-03  1.173119610681752E-04
 8.458000000000E+02  4.522522449520606E-03  1.178626757608581E-04
 8.458200000000E+02  4.532732222825565E-03  1.184174015315357E-04
 8.458400000000E+02  4.542983223123589E-03  1.189761791239435E-04
 8.458600000000E+02  4.553275883963123E-03  1.195390497872285E-04
 8.458800000000E+02  4.563610639891232E-03  1.201060552841955E-04
 8.459000000000E+02  4.573987926572040E-03  1.206772378996823E-04
 8.459200000000E+02  4.584408180902774E-03  1.212526404490722E-04
 8.459400000000E+02  4.594871841127733E-03  1.218323062869498E-04
 8.459600000000E+02  4.605379346950860E-03  1.224162793158983E-04
 8.459800000000E+02  4.615931139646126E-03  1.230046039954486E-04
 8.460000000000E+02  4.626527662166433E-03  1.235973253511775E-04
 8.460200000000E+02  4.637169359251138E-03  1.241944889839621E-04
 8.460400000000E+02  4.647856677532091E-03  1.247961410793950E-04
 8.460600000000E+02  4.658590065638289E-03  1.254023284173619E-04
 8.460800000000E+02  4.669369974299456E-03  1.260130983817853E-04
 8.461000000000E+02  4.680196856448472E-03  1.266284989705438E-04
 8.461200000000E+02  4.691071167322682E-03  1.272485788055630E-04
 8.461400000000E+02  4.701993364564638E-03  1.278733871430857E-04
 8.461600000000E+02  4.712963908321472E-03  1.285029738841317E-04
 8.461800000000E+02  4.723983261344057E-03  1.291373895851392E-04
 8.462000000000E+02  4.735051889084899E-03  1.297766854688043E-04
 8.462200000000E+02  4.746170259796099E-03  1.304209134351168E-04
 8.462400000000E+02  4.757338844626259E-03  1.310701260725936E-04
 8.462600000000E+02  4.768558117717195E-03  1.317243766697253E-04
 8.462800000000E+02  4.779828556300151E-03  1.323837192266342E-04
 8.463000000000E+02  4.791150640791790E-03  1.330482084669428E-04
 8.463200000000E+02  4.802524854889902E-03  1.337178998498718E-04
 8.463400000000E+02  4.813951685668931E-03  1.343928495825567E-04
 8.463600000000E+02  4.825431623675406E-03  1.350731146326094E-04
 8.463800000000E+02  4.836965163023212E-03  1.357587527409023E-04
 8.464000000000E+02  4.848552801489058E-03  1.364498224346067E-04
 8.464200000000E+02  4.860195040607775E-03  1.371463830404772E-04
 8.464400000000E+02  4.871892385768097E-03  1.378484946983893E-04
 8.464600000000E+02  4.883645346308042E-03  1.385562183751384E-04
 8.464800000000E+02  4.895454435611173E-03  1.392696158785071E-04
 8.465000000000E+02  4.907320171202717E-03  1.399887498716080E-04
 8.465200000000E+02  4.919243074846144E-03  1.407136838874961E-04
 8.465400000000E+02  4.931223672640264E-03  1.414444823440820E-04
 8.465600000000E+02  4.943262495116547E-03  1.421812105593247E-04
 8.465800000000E+02  4.955360077337163E-03  1.429239347667318E-04
 8.466000000000E+02  4.967516958993387E-03  1.436727221311665E-04
 8.466200000000E+02  4.979733684504837E-03  1.444276407649643E-04
 8.466400000000E+02  4.992010803119058E-03  1.451887597443723E-04
 8.466600000000E+02  5.004348869012160E-03  1.459561491263243E-04
 8.466800000000E+02  5.016748441389910E-03  1.467298799655436E-04
 8.467000000000E+02  5.029210084589771E-03  1.475100243319947E-04
 8.467200000000E+02  5.041734368183806E-03  1.482966553286931E-04
 8.467400000000E+02  5.054321867082464E-03  1.490898471098650E-04
 8.467600000000E+02  5.066973161639257E-03  1.498896748994908E-04
 8.467800000000E+02  5.079688837756489E-03  1.506962150102171E-04
 8.468000000000E+02  5.092469486992058E-03  1.515095448626637E-04
 8.468200000000E+02  5.105315706667351E-03  1.523297430051245E-04
 8.468400000000E+02  5.118228099976117E-03  1.531568891336785E-04
 8.468600000000E+02  5.131207276094896E-03  1.539910641127154E-04
 8.468800000000E+02  5.144253850294227E-03  1.548323499958891E-04
 8.469000000000E+02  5.157368444051707E-03  1.556808300475102E-04
 8.469200000000E+02  5.170551685165746E-03  1.565365887643839E-04
 8.469400000000E+02  5.183804207871246E-03  1.573997118981142E-04
 8.469600000000E+02  5.197126652956643E-03  1.582702864778671E-04
 8.469800000000E+02  5.210519667882033E-03  1.591484008336247E-04
 8.470000000000E+02  5.223983906899408E-03  1.600341446199357E-04
 8.470200000000E+02  5.237520031174163E-03  1.609276088401586E-04
 8.470400000000E+02  5.251128708908230E-03  1.618288858712408E-04
 8.470600000000E+02  5.264810615465228E-03  1.627380694890149E-04
 8.470800000000E+02  5.278566433496853E-03  1.636552548940497E-04
 8.471000000000E+02  5.292396853071764E-03  1.645805387380563E-04
 8.471200000000E+02  5.306302571805591E-03  1.655140191508618E-04
 8.471400000000E+02  5.320284294993524E-03  1.664557957679792E-04
 8.471600000000E+02  5.334342735744400E-03  1.674059697587750E-04
 8.471800000000E+02  5.348478615117204E-03  1.683646438552490E-04
 8.472000000000E+02  5.362692662259310E-03  1.693319223814513E-04
 8.472200000000E+02  5.376985614547239E-03  1.703079112835557E-04
 8.472400000000E+02  5.391358217729376E-03  1.712927181605774E-04
 8.472600000000E+02  5.405811226071019E-03  1.722864522957967E-04
 8.472800000000E+02  5.420345402501886E-03  1.732892246888674E-04
 8.473000000000E+02  5.434961518765849E-03  1.743011480886452E-04
 8.473200000000E+02  5.449660355573428E-03  1.753223370267590E-04
 8.473400000000E+02  5.464442702756402E-03  1.763529078519312E-04
 8.473600000000E+02  5.479309359425435E-03  1.773929787650757E-04
 8.473800000000E+02  5.494261134130112E-03  1.784426698551922E-04
 8.474000000000E+02  5.509298845021931E-03  1.795021031360743E-04
 8.474200000000E+02  5.524423320019746E-03  1.805714025838556E-04
 8.474400000000E+02  5.539635396978774E-03  1.816506941754199E-04
 8.474600000000E+02  5.554935923861715E-03  1.827401059276861E-04
 8.474800000000E+02  5.570325758913644E-03  1.838397679378076E-04
 8.475000000000E+02  5.585805770839563E-03  1.849498124242948E-04
 8.475200000000E+02  5.601376838985538E-03  1.860703737690939E-04
 8.475400000000E+02  5.617039853522673E-03  1.872015885606530E-04
 8.475600000000E+02  5.632795715634816E-03  1.883435956379817E-04
 8.475800000000E+02  5.648645337709647E-03  1.894965361357584E-04
 8.476000000000E+02  5.664589643533177E-03  1.906605535304878E-04
 8.476200000000E+02  5.680629568487988E-03  1.918357936877606E-04
 8.476400000000E+02  5.696766059755169E-03  1.930224049106221E-04
 8.476600000000E+02  5.713000076520158E-03  1.942205379891008E-04
 8.476800000000E+02  5.729332590182369E-03  1.954303462509156E-04
 8.477000000000E+02  5.745764584568884E-03  1.966519856133976E-04
 8.477200000000E+02  5.762297056152254E-03  1.978856146366636E-04
 8.477400000000E+02  5.778931014272726E-03  1.991313945780703E-04
 8.477600000000E+02  5.795667481364371E-03  2.003894894479901E-04
 8.477800000000E+02  5.812507493186093E-03  2.016600660669418E-04
 8.478000000000E+02  5.829452099056914E-03  2.029432941241099E-04
 8.478200000000E+02  5.846502362096086E-03  2.042393462373125E-04
 8.478400000000E+02  5.863659359467847E-03  2.055483980144217E-04
 8.478600000000E+02  5.880924182631304E-03  2.068706281163171E-04
 8.478800000000E+02  5.898297937595067E-03  2.082062183213886E-04
 8.479000000000E+02  5.915781745177266E-03  2.095553535916431E-04
 8.479200000000E+02  5.933376741270827E-03  2.109182221404634E-04
 8.479400000000E+02  5.951084077114198E-03  2.122950155020605E-04
 8.479600000000E+02  5.968904919567368E-03  2.136859286026682E-04
 8.479800000000E+02  5.986840451394177E-03  2.150911598335426E-04
 8.480000000000E+02  6.004891871549815E-03  2.165109111257974E-04
 8.480200000000E+02  6.023060395474920E-03  2.179453880271499E-04
 8.480400000000E+02  6.041347255395464E-03  2.193947997806207E-04
 8.480600000000E+02  6.059753700629125E-03  2.208593594052484E-04
 8.480800000000E+02  6.078280997898157E-03  2.223392837788763E-04
 8.481000000000E+02  6.096930431648831E-03  2.238347937230827E-04
 8.481200000000E+02  6.115703304377818E-03  2.253461140902973E-04
 8.481400000000E+02  6.134600936965490E-03  2.268734738531957E-04
 8.481600000000E+02  6.153624669016571E-03  2.284171061964189E-04
 8.481800000000E+02  6.172775859207972E-03  2.299772486106920E-04
 8.482000000000E+02  6.192055885644445E-03  2.315541429894298E-04
 8.482200000000E+02  6.211466146221682E-03  2.331480357278801E-04
 8.482400000000E+02  6.231008058997910E-03  2.347591778249016E-04
 8.482600000000E+02  6.250683062573095E-03  2.363878249874465E-04
 8.482800000000E+02  6.270492616477174E-03  2.380342377378348E-04
 8.483000000000E+02  6.290438201566368E-03  2.396986815239075E-04
 8.483200000000E+02  6.310521320428824E-03  2.413814268321389E-04
 8.483400000000E+02  6.330743497799184E-03  2.430827493038120E-04
 8.483600000000E+02  6.351106280982373E-03  2.448029298543461E-04
 8.483800000000E+02  6.371611240287412E-03  2.465422547958706E-04
 8.484000000000E+02  6.392259969470743E-03  2.483010159631543E-04
 8.484200000000E+02  6.413054086189814E-03  2.500795108430011E-04
 8.484400000000E+02  6.433995232467174E-03  2.518780427071943E-04
 8.484600000000E+02  6.455085075165292E-03  2.536969207491430E-04
 8.484800000000E+02  6.476325306472235E-03  2.555364602243199E-04
 8.485000000000E+02  6.497717644398824E-03  2.573969825946120E-04
 8.485200000000E+02  6.519263833287296E-03  2.592788156767240E-04
 8.485400000000E+02  6.540965644332102E-03  2.611822937947651E-04
 8.485600000000E+02  6.562824876112899E-03  2.631077579371329E-04
 8.485800000000E+02  6.584843355139963E-03  2.650555559178597E-04
 8.486000000000E+02  6.607022936413147E-03  2.670260425425684E-04
 8.486200000000E+02  6.629365503993584E-03  2.690195797791432E-04
 8.486400000000E+02  6.651872971589520E-03  2.710365369333458E-04
