#Spectra: 1
Emin______Emax       8.427000000000000E+02  8.827000000000000E+02
EminPole__EmaxPole   8.536379956621730E+02  8.738056719122183E+02
dE________Gamma      2.000000000000000E-02  1.000000000000000E-01
Energy               Re[0]                  Im[0]                
 8.427000000000E+02  1.665871582488213E-03  5.430472890199821E-05
 8.427200000000E+02  1.771340353533288E-03  5.490218660259205E-05
 8.427400000000E+02  1.873728674339995E-03  5.548890617612000E-05
 8.427600000000E+02  1.971295860526371E-03  5.605787345659097E-05
 8.427800000000E+02  2.062822319617941E-03  5.660415812008454E-05
 8.428000000000E+02  2.147627843025165E-03  5.712499092042169E-05
 8.428200000000E+02  2.225499766825870E-03  5.761947848919755E-05
 8.428400000000E+02  2.296577244794937E-03  5.808814108930527E-05
 8.428600000000E+02  2.361231052126979E-03  5.853243158137006E-05
 8.428800000000E+02  2.419961824417352E-03  5.895432770885484E-05
 8.429000000000E+02  2.473324669406484E-03  5.935602976032291E-05
 8.429200000000E+02  2.521878913606541E-03  5.973975881330270E-05
 8.429400000000E+02  2.566157861349341E-03  6.010763512921489E-05
 8.429600000000E+02  2.606652818993896E-03  6.046161371975102E-05
 8.429800000000E+02  2.643806487322679E-03  6.080345748544168E-05
 8.430000000000E+02  2.678012073231177E-03  6.113473331360853E-05
 8.430200000000E+02  2.709615619990411E-03  6.145682111616995E-05
 8.430400000000E+02  2.738919944294172E-03  6.177092934620310E-05
 8.430600000000E+02  2.766189195068119E-03  6.207811304218185E-05
 8.430800000000E+02  2.791653464948805E-03  6.237929211508481E-05
 8.431000000000E+02  2.815513149180397E-03  6.267526865091982E-05
 8.431200000000E+02  2.837942907620900E-03  6.296674264649246E-05
 8.431400000000E+02  2.859095179831515E-03  6.325432597449943E-05
 8.431600000000E+02  2.879103255718691E-03  6.353855458483319E-05
 8.431800000000E+02  2.898083931249329E-03  6.381989905780963E-05
 8.432000000000E+02  2.916139790770456E-03  6.409877367354445E-05
 8.432200000000E+02  2.933361160909211E-03  6.437554417584853E-05
 8.432400000000E+02  2.949827779839508E-03  6.465053440451691E-05
 8.432600000000E+02  2.965610222222461E-03  6.492403195621436E-05
 8.432800000000E+02  2.980771115713275E-03  6.519629301665169E-05
 8.433000000000E+02  2.995366180332994E-03  6.546754648854748E-05
 8.433200000000E+02  3.009445117627692E-03  6.573799752243255E-05
 8.433400000000E+02  3.023052372565400E-03  6.600783054162165E-05
 8.433600000000E+02  3.036227787621034E-03  6.627721183869226E-05
 8.433800000000E+02  3.049007165472200E-03  6.654629180881968E-05
 8.434000000000E+02  3.061422754142934E-03  6.681520687498973E-05
 8.434200000000E+02  3.073503666242815E-03  6.708408115141797E-05
 8.434400000000E+02  3.085276242103151E-03  6.735302788415368E-05
 8.434600000000E+02  3.096764365063577E-03  6.762215070168449E-05
 8.434800000000E+02  3.107989735864532E-03  6.789154470319503E-05
 8.435000000000E+02  3.118972112014908E-03  6.816129740781096E-05
 8.435200000000E+02  3.129729517095787E-03  6.843148958454417E-05
 8.435400000000E+02  3.140278424200214E-03  6.870219597962963E-05
 8.435600000000E+02  3.150633917072006E-03  6.897348595541445E-05
 8.435800000000E+02  3.160809831971235E-03  6.924542405281797E-05
 8.436000000000E+02  3.170818882846930E-03  6.951807048762115E-05
 8.436200000000E+02  3.180672772017322E-03  6.979148158932046E-05
 8.436400000000E+02  3.190382288242025E-03  7.006571019002230E-05
 8.436600000000E+02  3.199957393800129E-03  7.034080596979693E-05
 8.436800000000E+02  3.209407301961535E-03  7.061681576398348E-05
 8.437000000000E+02  3.218740546045738E-03  7.089378383720031E-05
 8.437200000000E+02  3.227965041098827E-03  7.117175212813800E-05
 8.437400000000E+02  3.237088139079556E-03  7.145076046867237E-05
 8.437600000000E+02  3.246116678326848E-03  7.173084678036732E-05
 8.437800000000E+02  3.255057027979204E-03  7.201204725101666E-05
 8.438000000000E+02  3.263915127929284E-03  7.229439649353952E-05
 8.438200000000E+02  3.272696524822440E-03  7.257792768925516E-05
 8.438400000000E+02  3.281406404543475E-03  7.286267271728081E-05
 8.438600000000E+02  3.290049621580537E-03  7.314866227161141E-05
 8.438800000000E+02  3.298630725606922E-03  7.343592596722076E-05
 8.439000000000E+02  3.307153985580829E-03  7.372449243637311E-05
 8.439200000000E+02  3.315623411626285E-03  7.401438941619039E-05
 8.439400000000E+02  3.324042774928008E-03  7.430564382839832E-05
 8.439600000000E+02  3.332415625845409E-03  7.459828185205770E-05
 8.439800000000E+02  3.340745310427398E-03  7.489232899000718E-05
 8.440000000000E+02  3.349034985489038E-03  7.518781012964877E-05
 8.440200000000E+02  3.357287632392734E-03  7.548474959864489E-05
 8.440400000000E+02  3.365506069661382E-03  7.578317121602832E-05
 8.440600000000E+02  3.373692964536130E-03  7.608309833917466E-05
 8.440800000000E+02  3.381850843579890E-03  7.638455390703118E-05
 8.441000000000E+02  3.389982102416834E-03  7.668756047996610E-05
 8.441200000000E+02  3.398089014687839E-03  7.699214027654969E-05
 8.441400000000E+02  3.406173740294852E-03  7.729831520755649E-05
 8.441600000000E+02  3.414238332998278E-03  7.760610690744439E-05
 8.441800000000E+02  3.422284747425816E-03  7.791553676353880E-05
 8.442000000000E+02  3.430314845544880E-03  7.822662594313197E-05
 8.442200000000E+02  3.438330402645837E-03  7.853939541867744E-05
 8.442400000000E+02  3.446333112878319E-03  7.885386599125601E-05
 8.442600000000E+02  3.454324594379064E-03  7.917005831245693E-05
 8.442800000000E+02  3.462306394025813E-03  7.948799290481706E-05
 8.443000000000E+02  3.470279991848747E-03  7.980769018093670E-05
 8.443200000000E+02  3.478246805127619E-03  8.012917046138992E-05
 8.443400000000E+02  3.486208192200537E-03  8.045245399152811E-05
 8.443600000000E+02  3.494165456007757E-03  8.077756095726887E-05
 8.443800000000E+02  3.502119847391593E-03  8.110451149995567E-05
 8.444000000000E+02  3.510072568171859E-03  8.143332573036789E-05
 8.444200000000E+02  3.518024774014617E-03  8.176402374194091E-05
 8.444400000000E+02  3.525977577109984E-03  8.209662562327627E-05
 8.444600000000E+02  3.533932048673947E-03  8.243115146998279E-05
 8.444800000000E+02  3.541889221287351E-03  8.276762139591525E-05
 8.445000000000E+02  3.549850091084559E-03  8.310605554384983E-05
 8.445200000000E+02  3.557815619802696E-03  8.344647409565007E-05
 8.445400000000E+02  3.565786736702017E-03  8.378889728195425E-05
 8.445600000000E+02  3.573764340366751E-03  8.413334539143171E-05
 8.445800000000E+02  3.581749300394920E-03  8.447983877963412E-05
 8.446000000000E+02  3.589742458985249E-03  8.482839787747982E-05
 8.446200000000E+02  3.597744632428517E-03  8.517904319939582E-05
 8.446400000000E+02  3.605756612509814E-03  8.553179535115025E-05
 8.446600000000E+02  3.613779167828161E-03  8.588667503739062E-05
 8.446800000000E+02  3.621813045039104E-03  8.624370306892454E-05
 8.447000000000E+02  3.629858970025517E-03  8.660290036974940E-05
 8.447200000000E+02  3.637917649001471E-03  8.696428798386361E-05
 8.447400000000E+02  3.645989769553838E-03  8.732788708186655E-05
 8.447600000000E+02  3.654076001625382E-03  8.769371896737536E-05
 8.447800000000E+02  3.662176998443692E-03  8.806180508326382E-05
 8.448000000000E+02  3.670293397399201E-03  8.843216701774628E-05
 8.448200000000E+02  3.678425820875489E-03  8.880482651031293E-05
 8.448400000000E+02  3.686574877035294E-03  8.917980545753711E-05
 8.448600000000E+02  3.694741160564780E-03  8.955712591875868E-05
 8.448800000000E+02  3.702925253378732E-03  8.993681012166172E-05
 8.449000000000E+02  3.711127725289279E-03  9.031888046774972E-05
 8.449200000000E+02  3.719349134640250E-03  9.070335953773369E-05
 8.449400000000E+02  3.727590028909336E-03  9.109027009684151E-05
 8.449600000000E+02  3.735850945280121E-03  9.147963510005127E-05
 8.449800000000E+02  3.744132411185654E-03  9.187147769726593E-05
 8.450000000000E+02  3.752434944825430E-03  9.226582123843031E-05
 8.450200000000E+02  3.760759055657312E-03  9.266268927859731E-05
 8.450400000000E+02  3.769105244865763E-03  9.306210558295474E-05
 8.450600000000E+02  3.777474005808133E-03  9.346409413181496E-05
 8.450800000000E+02  3.785865824439850E-03  9.386867912557514E-05
 8.451000000000E+02  3.794281179720024E-03  9.427588498965250E-05
 8.451200000000E+02  3.802720543998658E-03  9.468573637940261E-05
 8.451400000000E+02  3.811184383386184E-03  9.509825818502344E-05
 8.451600000000E+02  3.819673158106684E-03  9.551347553644787E-05
 8.451800000000E+02  3.828187322835590E-03  9.593141380823719E-05
 8.452000000000E+02  3.836727327022734E-03  9.635209862447294E-05
 8.452200000000E+02  3.845293615201438E-03  9.677555586365076E-05
 8.452400000000E+02  3.853886627284787E-03  9.720181166358719E-05
 8.452600000000E+02  3.862506798849428E-03  9.763089242633576E-05
 8.452800000000E+02  3.871154561407707E-03  9.806282482312321E-05
 8.453000000000E+02  3.879830342668953E-03  9.849763579930259E-05
 8.453200000000E+02  3.888534566790125E-03  9.893535257933074E-05
 8.453400000000E+02  3.897267654616915E-03  9.937600267177504E-05
 8.453600000000E+02  3.906030023915297E-03  9.981961387434681E-05
 8.453800000000E+02  3.914822089594368E-03  1.002662142789730E-04
 8.454000000000E+02  3.923644263920960E-03  1.007158322768978E-04
 8.454200000000E+02  3.932496956726224E-03  1.011684965638325E-04
 8.454400000000E+02  3.941380575604901E-03  1.016242361451412E-04
 8.454600000000E+02  3.950295526107322E-03  1.020830803410741E-04
 8.454800000000E+02  3.959242211925128E-03  1.025450587920522E-04
 8.455000000000E+02  3.968221035070081E-03  1.030102014639972E-04
 8.455200000000E+02  3.977232396047462E-03  1.034785386537219E-04
 8.455400000000E+02  3.986276694023452E-03  1.039501009943714E-04
 8.455600000000E+02  3.995354326987272E-03  1.044249194609309E-04
 8.455800000000E+02  4.004465691908122E-03  1.049030253757864E-04
 8.456000000000E+02  4.013611184887474E-03  1.053844504143574E-04
 8.456200000000E+02  4.022791201306717E-03  1.058692266107926E-04
 8.456400000000E+02  4.032006135970321E-03  1.063573863637407E-04
 8.456600000000E+02  4.041256383245253E-03  1.068489624421846E-04
 8.456800000000E+02  4.050542337196286E-03  1.073439879913593E-04
 8.457000000000E+02  4.059864391717626E-03  1.078424965387438E-04
 8.457200000000E+02  4.069222940661223E-03  1.083445220001306E-04
 8.457400000000E+02  4.078618377961632E-03  1.088500986857837E-04
 8.457600000000E+02  4.088051097757991E-03  1.093592613066756E-04
 8.457800000000E+02  4.097521494512772E-03  1.098720449808147E-04
 8.458000000000E+02  4.107029963128067E-03  1.103884852396657E-04
 8.458200000000E+02  4.116576899059044E-03  1.109086180346567E-04
 8.458400000000E+02  4.126162698425013E-03  1.114324797437883E-04
 8.458600000000E+02  4.135787758118138E-03  1.119601071783362E-04
 8.458800000000E+02  4.145452475910074E-03  1.124915375896560E-04
 8.459000000000E+02  4.155157250556231E-03  1.130268086760926E-04
 8.459200000000E+02  4.164902481898478E-03  1.135659585899934E-04
 8.459400000000E+02  4.174688570965745E-03  1.141090259448336E-04
 8.459600000000E+02  4.184515920072927E-03  1.146560498224501E-04
 8.459800000000E+02  4.194384932918413E-03  1.152070697803909E-04
 8.460000000000E+02  4.204296014679735E-03  1.157621258593823E-04
 8.460200000000E+02  4.214249572108157E-03  1.163212585909160E-04
 8.460400000000E+02  4.224246013621700E-03  1.168845090049576E-04
 8.460600000000E+02  4.234285749396978E-03  1.174519186377847E-04
 8.460800000000E+02  4.244369191460168E-03  1.180235295399505E-04
 8.461000000000E+02  4.254496753776483E-03  1.185993842843804E-04
 8.461200000000E+02  4.264668852338943E-03  1.191795259746066E-04
 8.461400000000E+02  4.274885905256335E-03  1.197639982531349E-04
 8.461600000000E+02  4.285148332839943E-03  1.203528453099604E-04
 8.461800000000E+02  4.295456557690150E-03  1.209461118912219E-04
 8.462000000000E+02  4.305811004781658E-03  1.215438433080085E-04
 8.462200000000E+02  4.316212101548669E-03  1.221460854453143E-04
 8.462400000000E+02  4.326660277969203E-03  1.227528847711521E-04
 8.462600000000E+02  4.337155966649004E-03  1.233642883458215E-04
 8.462800000000E+02  4.347699602905128E-03  1.239803438313424E-04
 8.463000000000E+02  4.358291624848956E-03  1.246010995010523E-04
 8.463200000000E+02  4.368932473469067E-03  1.252266042493733E-04
 8.463400000000E+02  4.379622592713854E-03  1.258569076017543E-04
 8.463600000000E+02  4.390362429573864E-03  1.264920597247884E-04
 8.463800000000E+02  4.401152434163959E-03  1.271321114365087E-04
 8.464000000000E+02  4.411993059805592E-03  1.277771142168807E-04
 8.464200000000E+02  4.422884763108787E-03  1.284271202184673E-04
 8.464400000000E+02  4.433828004054350E-03  1.290821822773041E-04
 8.464600000000E+02  4.444823246075845E-03  1.297423539239580E-04
 8.464800000000E+02  4.455870956142146E-03  1.304076893948039E-04
 8.465000000000E+02  4.466971604839583E-03  1.310782436434904E-04
 8.465200000000E+02  4.478125666454721E-03  1.317540723526335E-04
 8.465400000000E+02  4.489333619057121E-03  1.324352319457181E-04
 8.465600000000E+02  4.500595944582422E-03  1.331217795992208E-04
 8.465800000000E+02  4.511913128916037E-03  1.338137732549622E-04
 8.466000000000E+02  4.523285661976725E-03  1.345112716326893E-04
 8.466200000000E+02  4.534714037800939E-03  1.352143342428934E-04
 8.466400000000E+02  4.546198754627513E-03  1.359230213998688E-04
 8.466600000000E+02  4.557740314982853E-03  1.366373942350251E-04
 8.466800000000E+02  4.569339225766667E-03  1.373575147104427E-04
 8.467000000000E+02  4.580995998338293E-03  1.380834456326953E-04
 8.467200000000E+02  4.592711148603447E-03  1.388152506669316E-04
 8.467400000000E+02  4.604485197102051E-03  1.395529943512327E-04
 8.467600000000E+02  4.616318669096312E-03  1.402967421112359E-04
 8.467800000000E+02  4.628212094659712E-03  1.410465602750579E-04
 8.468000000000E+02  4.640166008767006E-03  1.418025160884901E-04
 8.468200000000E+02  4.652180951384452E-03  1.425646777305011E-04
 8.468400000000E+02  4.664257467561510E-03  1.433331143290369E-04
 8.468600000000E+02  4.676396107523155E-03  1.441078959771340E-04
 8.468800000000E+02  4.688597426762985E-03  1.448890937493450E-04
 8.469000000000E+02  4.700861986137539E-03  1.456767797184960E-04
 8.469200000000E+02  4.713190351961552E-03  1.464710269727617E-04
 8.469400000000E+02  4.725583096104180E-03  1.472719096331001E-04
 8.469600000000E+02  4.738040796086404E-03  1.480795028710113E-04
 8.469800000000E+02  4.750564035179516E-03  1.488938829266722E-04
 8.470000000000E+02  4.763153402504740E-03  1.497151271274205E-04
 8.470200000000E+02  4.775809493134197E-03  1.505433139066171E-04
 8.470400000000E+02  4.788532908192925E-03  1.513785228228871E-04
 8.470600000000E+02  4.801324254962271E-03  1.522208345797533E-04
 8.470800000000E+02  4.814184146984788E-03  1.530703310456655E-04
 8.471000000000E+02  4.827113204170100E-03  1.539270952744358E-04
 8.471200000000E+02  4.840112052902646E-03  1.547912115261014E-04
 8.471400000000E+02  4.853181326150524E-03  1.556627652882017E-04
 8.471600000000E+02  4.866321663576015E-03  1.565418432975050E-04
 8.471800000000E+02  4.879533711647548E-03  1.574285335621784E-04
 8.472000000000E+02  4.892818123753390E-03  1.583229253844159E-04
 8.472200000000E+02  4.906175560316840E-03  1.592251093835402E-04
 8.472400000000E+02  4.919606688913101E-03  1.601351775195823E-04
 8.472600000000E+02  4.933112184388033E-03  1.610532231173577E-04
 8.472800000000E+02  4.946692728978466E-03  1.619793408910449E-04
 8.473000000000E+02  4.960349012434423E-03  1.629136269692835E-04
 8.473200000000E+02  4.974081732143362E-03  1.638561789207985E-04
 8.473400000000E+02  4.987891593255937E-03  1.648070957805718E-04
 8.473600000000E+02  5.001779308814243E-03  1.657664780765687E-04
 8.473800000000E+02  5.015745599881575E-03  1.667344278570304E-04
 8.474000000000E+02  5.029791195674653E-03  1.677110487183544E-04
 8.474200000000E+02  5.043916833697746E-03  1.686964458335743E-04
 8.474400000000E+02  5.058123259879069E-03  1.696907259814453E-04
 8.474600000000E+02  5.072411228709228E-03  1.706939975761669E-04
 8.474800000000E+02  5.086781503382294E-03  1.717063706977438E-04
 8.475000000000E+02  5.101234855938922E-03  1.727279571230077E-04
 8.475200000000E+02  5.115772067411935E-03  1.737588703573176E-04
 8.475400000000E+02  5.130393927974429E-03  1.747992256669503E-04
 8.475600000000E+02  5.145101237090460E-03  1.758491401122069E-04
 8.475800000000E+02  5.159894803668050E-03  1.769087325812416E-04
 8.476000000000E+02  5.174775446215204E-03  1.779781238246444E-04
 8.476200000000E+02  5.189743992998248E-03  1.790574364907888E-04
 8.476400000000E+02  5.204801282203372E-03  1.801467951619597E-04
 8.476600000000E+02  5.219948162100572E-03  1.812463263912968E-04
 8.476800000000E+02  5.235185491210866E-03  1.823561587405604E-04
 8.477000000000E+02  5.250514138476238E-03  1.834764228187421E-04
 8.477200000000E+02  5.265934983432886E-03  1.846072513215551E-04
 8.477400000000E+02  5.281448916387342E-03  1.857487790718070E-04
 8.477600000000E+02  5.297056838595874E-03  1.869011430606958E-04
 8.477800000000E+02  5.312759662447496E-03  1.880644824900419E-04
 8.478000000000E+02  5.328558311649596E-03  1.892389388154913E-04
 8.478200000000E+02  5.344453721417976E-03  1.904246557906983E-04
 8.478400000000E+02  5.360446838669447E-03  1.916217795125333E-04
 8.478600000000E+02  5.376538622218828E-03  1.928304584673308E-04
 8.478800000000E+02  5.392730042979204E-03  1.940508435782082E-04
 8.479000000000E+02  5.409022084165957E-03  1.952830882534837E-04
 8.479200000000E+02  5.425415741505002E-03  1.965273484362224E-04
 8.479400000000E+02  5.441912023444608E-03  1.977837826549440E-04
 8.479600000000E+02  5.458511951371647E-03  1.990525520755171E-04
 8.479800000000E+02  5.475216559831708E-03  2.003338205542803E-04
 8.480000000000E+02  5.492026896753622E-03  2.016277546924152E-04
 8.480200000000E+02  5.508944023678371E-03  2.029345238916101E-04
 8.480400000000E+02  5.525969015992458E-03  2.042543004110483E-04
 8.480600000000E+02  5.543102963165879E-03  2.055872594257604E-04
 8.480800000000E+02  5.560346968994651E-03  2.069335790863729E-04
 8.481000000000E+02  5.577702151848415E-03  2.082934405802890E-04
 8.481200000000E+02  5.595169644922820E-03  2.096670281943591E-04
 8.481400000000E+02  5.612750596496924E-03  2.110545293790560E-04
 8.481600000000E+02  5.630446170195755E-03  2.124561348142199E-04
 8.481800000000E+02  5.648257545258539E-03  2.138720384764014E-04
 8.482000000000E+02  5.666185916811699E-03  2.153024377078531E-04
 8.482200000000E+02  5.684232496148145E-03  2.167475332872253E-04
 8.482400000000E+02  5.702398511011685E-03  2.182075295019936E-04
 8.482600000000E+02  5.720685205887783E-03  2.196826342226866E-04
 8.482800000000E+02  5.739093842299831E-03  2.211730589789547E-04
 8.483000000000E+02  5.757625699112040E-03  2.226790190375370E-04
 8.483200000000E+02  5.776282072838286E-03  2.242007334821774E-04
 8.483400000000E+02  5.795064277957617E-03  2.257384252955490E-04
 8.483600000000E+02  5.813973647236301E-03  2.272923214432442E-04
 8.483800000000E+02  5.833011532056726E-03  2.288626529598869E-04
 8.484000000000E+02  5.852179302753179E-03  2.304496550374344E-04
 8.484200000000E+02  5.871478348954822E-03  2.320535671157314E-04
 8.484400000000E+02  5.890910079936164E-03  2.336746329753732E-04
 8.484600000000E+02  5.910475924974637E-03  2.353131008329658E-04
 8.484800000000E+02  5.930177333716345E-03  2.369692234388285E-04
 8.485000000000E+02  5.950015776549372E-03  2.386432581772342E-04
 8.485200000000E+02  5.969992744985478E-03  2.403354671692487E-04
 8.485400000000E+02  5.990109752049800E-03  2.420461173782519E-04
 8.485600000000E+02  6.010368332679442E-03  2.437754807182232E-04
 8.485800000000E+02  6.030770044130607E-03  2.455238341648639E-04
 8.486000000000E+02  6.051316466394703E-03  2.472914598696653E-04
 8.486200000000E+02  6.072009202623928E-03  2.490786452769740E-04
 8.486400000000E+02  6.092849879565911E-03  2.508856832441946E-04
