#Spectra: 1
Emin______Emax       8.430000000000000E+02  8.830000000000000E+02
EminPole__EmaxPole   8.543047842589654E+02  8.725064489964757E+02
dE________Gamma      2.000000000000000E-02  1.000000000000000E-01
Energy               Re[0]                  Im[0]                
 8.430000000000E+02  1.636813925831933E-03  5.195416155846566E-05
 8.430200000000E+02  1.740441895731469E-03  5.252066064667366E-05
 8.430400000000E+02  1.841036026015015E-03  5.307679253328359E-05
 8.430600000000E+02  1.936884852557831E-03  5.361584588603818E-05
 8.430800000000E+02  2.026789361608112E-03  5.413310399427106E-05
 8.431000000000E+02  2.110080953980813E-03  5.462591848044106E-05
 8.431200000000E+02  2.186550784773979E-03  5.509343620055614E-05
 8.431400000000E+02  2.256335952379347E-03  5.553615676035230E-05
 8.431600000000E+02  2.319801297771882E-03  5.595547209728188E-05
 8.431800000000E+02  2.377439335738005E-03  5.635327626329097E-05
 8.432000000000E+02  2.429796122018701E-03  5.673167607743276E-05
 8.432200000000E+02  2.477421838090826E-03  5.709279804990254E-05
 8.432400000000E+02  2.520841055753645E-03  5.743867201887221E-05
 8.432600000000E+02  2.560537029550957E-03  5.777116950424478E-05
 8.432800000000E+02  2.596945201367515E-03  5.809197801912757E-05
 8.433000000000E+02  2.630452328943289E-03  5.840259735300503E-05
 8.433200000000E+02  2.661398779172312E-03  5.870434823710321E-05
 8.433400000000E+02  2.690082401220741E-03  5.899838720831989E-05
 8.433600000000E+02  2.716763010849132E-03  5.928572389044687E-05
 8.433800000000E+02  2.741666926338594E-03  5.956723850617939E-05
 8.434000000000E+02  2.764991255871201E-03  5.984369844537149E-05
 8.434200000000E+02  2.786907794480124E-03  6.011577333255955E-05
 8.434400000000E+02  2.807566481395881E-03  6.038404839876496E-05
 8.434600000000E+02  2.827098420235541E-03  6.064903616432602E-05
 8.434800000000E+02  2.845618491078782E-03  6.091118654363678E-05
 8.435000000000E+02  2.863227595285536E-03  6.117089552908638E-05
 8.435200000000E+02  2.880014577293462E-03  6.142851262500230E-05
 8.435400000000E+02  2.896057866462742E-03  6.168434719809882E-05
 8.435600000000E+02  2.911426878613204E-03  6.193867389782036E-05
 8.435800000000E+02  2.926183212555544E-03  6.219173728321149E-05
 8.436000000000E+02  2.940381672400668E-03  6.244375577550054E-05
 8.436200000000E+02  2.954071142126302E-03  6.269492503892680E-05
 8.436400000000E+02  2.967295334973615E-03  6.294542087721310E-05
 8.436600000000E+02  2.980093436804034E-03  6.319540171977281E-05
 8.436800000000E+02  2.992500659568787E-03  6.344501076018895E-05
 8.437000000000E+02  3.004548718500608E-03  6.369437779966233E-05
 8.437200000000E+02  3.016266244483220E-03  6.394362083978656E-05
 8.437400000000E+02  3.027679141239376E-03  6.419284746196228E-05
 8.437600000000E+02  3.038810895454775E-03  6.444215602488190E-05
 8.437800000000E+02  3.049682846678889E-03  6.469163670654999E-05
 8.438000000000E+02  3.060314422775872E-03  6.494137241319098E-05
 8.438200000000E+02  3.070723345804532E-03  6.519143957391636E-05
 8.438400000000E+02  3.080925812458440E-03  6.544190883713027E-05
 8.438600000000E+02  3.090936652570508E-03  6.569284568223628E-05
 8.438800000000E+02  3.100769468660478E-03  6.594431095815314E-05
 8.439000000000E+02  3.110436759062545E-03  6.619636135846339E-05
 8.439200000000E+02  3.119950026798250E-03  6.644904984155108E-05
 8.439400000000E+02  3.129319876047450E-03  6.670242600290094E-05
 8.439600000000E+02  3.138556097805331E-03  6.695653640569125E-05
 8.439800000000E+02  3.147667746089558E-03  6.721142487495228E-05
 8.440000000000E+02  3.156663205872727E-03  6.746713275982911E-05
 8.440200000000E+02  3.165550253753404E-03  6.772369916786564E-05
 8.440400000000E+02  3.174336112242635E-03  6.798116117469203E-05
 8.440600000000E+02  3.183027498424991E-03  6.823955401204984E-05
 8.440800000000E+02  3.191630667654098E-03  6.849891123670043E-05
 8.441000000000E+02  3.200151452856218E-03  6.875926488243395E-05
 8.441200000000E+02  3.208595299942359E-03  6.902064559710065E-05
 8.441400000000E+02  3.216967299765748E-03  6.928308276636788E-05
 8.441600000000E+02  3.225272217007406E-03  6.954660462565719E-05
 8.441800000000E+02  3.233514516325237E-03  6.981123836157343E-05
 8.442000000000E+02  3.241698386060922E-03  7.007701020395052E-05
 8.442200000000E+02  3.249827759764797E-03  7.034394550952045E-05
 8.442400000000E+02  3.257906335766408E-03  7.061206883808479E-05
 8.442600000000E+02  3.265937594993570E-03  7.088140402196459E-05
 8.442800000000E+02  3.273924817218020E-03  7.115197422942331E-05
 8.443000000000E+02  3.281871095886347E-03  7.142380202266609E-05
 8.443200000000E+02  3.289779351676620E-03  7.169690941096410E-05
 8.443400000000E+02  3.297652344905730E-03  7.197131789937602E-05
 8.443600000000E+02  3.305492686898667E-03  7.224704853350686E-05
 8.443800000000E+02  3.313302850418900E-03  7.252412194067483E-05
 8.444000000000E+02  3.321085179248729E-03  7.280255836783522E-05
 8.444200000000E+02  3.328841896998536E-03  7.308237771656308E-05
 8.444400000000E+02  3.336575115216128E-03  7.336359957536944E-05
 8.444600000000E+02  3.344286840859804E-03  7.364624324959488E-05
 8.444800000000E+02  3.351978983192253E-03  7.393032778910041E-05
 8.445000000000E+02  3.359653360146909E-03  7.421587201395724E-05
 8.445200000000E+02  3.367311704212699E-03  7.450289453830729E-05
 8.445400000000E+02  3.374955667879459E-03  7.479141379256081E-05
 8.445600000000E+02  3.382586828681123E-03  7.508144804407429E-05
 8.445800000000E+02  3.390206693871264E-03  7.537301541643878E-05
 8.446000000000E+02  3.397816704761430E-03  7.566613390749755E-05
 8.446200000000E+02  3.405418240750511E-03  7.596082140620378E-05
 8.446400000000E+02  3.413012623070183E-03  7.625709570840991E-05
 8.446600000000E+02  3.420601118269670E-03  7.655497453168175E-05
 8.446800000000E+02  3.428184941460535E-03  7.685447552921921E-05
 8.447000000000E+02  3.435765259340675E-03  7.715561630295104E-05
 8.447200000000E+02  3.443343193014814E-03  7.745841441587536E-05
 8.447400000000E+02  3.450919820627155E-03  7.776288740370499E-05
 8.447600000000E+02  3.458496179820777E-03  7.806905278587483E-05
 8.447800000000E+02  3.466073270037058E-03  7.837692807595956E-05
 8.448000000000E+02  3.473652054666760E-03  7.868653079155051E-05
 8.448200000000E+02  3.481233463064195E-03  7.899787846363204E-05
 8.448400000000E+02  3.488818392434591E-03  7.931098864550097E-05
 8.448600000000E+02  3.496407709603501E-03  7.962587892125912E-05
 8.448800000000E+02  3.504002252677311E-03  7.994256691391561E-05
 8.449000000000E+02  3.511602832602263E-03  8.026107029312878E-05
 8.449200000000E+02  3.519210234629435E-03  8.058140678261725E-05
 8.449400000000E+02  3.526825219692061E-03  8.090359416725851E-05
 8.449600000000E+02  3.534448525701480E-03  8.122765029991103E-05
 8.449800000000E+02  3.542080868767285E-03  8.155359310796997E-05
 8.450000000000E+02  3.549722944346697E-03  8.188144059968393E-05
 8.450200000000E+02  3.557375428328269E-03  8.221121087024943E-05
 8.450400000000E+02  3.565038978053915E-03  8.254292210770014E-05
 8.450600000000E+02  3.572714233283778E-03  8.287659259860704E-05
 8.450800000000E+02  3.580401817107395E-03  8.321224073360440E-05
 8.451000000000E+02  3.588102336804792E-03  8.354988501275779E-05
 8.451200000000E+02  3.595816384660803E-03  8.388954405078196E-05
 8.451400000000E+02  3.603544538735493E-03  8.423123658212494E-05
 8.451600000000E+02  3.611287363593628E-03  8.457498146593056E-05
 8.451800000000E+02  3.619045410995607E-03  8.492079769088215E-05
 8.452000000000E+02  3.626819220552360E-03  8.526870437994880E-05
 8.452200000000E+02  3.634609320346548E-03  8.561872079503098E-05
 8.452400000000E+02  3.642416227521982E-03  8.597086634152623E-05
 8.452600000000E+02  3.650240448843192E-03  8.632516057280992E-05
 8.452800000000E+02  3.658082481227244E-03  8.668162319465299E-05
 8.453000000000E+02  3.665942812249006E-03  8.704027406956841E-05
 8.453200000000E+02  3.673821920621909E-03  8.740113322110643E-05
 8.453400000000E+02  3.681720276655362E-03  8.776422083809744E-05
 8.453600000000E+02  3.689638342690349E-03  8.812955727884824E-05
 8.453800000000E+02  3.697576573514345E-03  8.849716307530176E-05
 8.454000000000E+02  3.705535416756940E-03  8.886705893715949E-05
 8.454200000000E+02  3.713515313267068E-03  8.923926575597863E-05
 8.454400000000E+02  3.721516697473130E-03  8.961380460924171E-05
 8.454600000000E+02  3.729539997726694E-03  8.999069676440618E-05
 8.454800000000E+02  3.737585636631102E-03  9.036996368294169E-05
 8.455000000000E+02  3.745654031355328E-03  9.075162702434987E-05
 8.455200000000E+02  3.753745593934352E-03  9.113570865018268E-05
 8.455400000000E+02  3.761860731556619E-03  9.152223062805254E-05
 8.455600000000E+02  3.769999846839199E-03  9.191121523563954E-05
 8.455800000000E+02  3.778163338091590E-03  9.230268496470790E-05
 8.456000000000E+02  3.786351599568389E-03  9.269666252512209E-05
 8.456200000000E+02  3.794565021711917E-03  9.309317084887579E-05
 8.456400000000E+02  3.802803991384924E-03  9.349223309412962E-05
 8.456600000000E+02  3.811068892094102E-03  9.389387264926581E-05
 8.456800000000E+02  3.819360104204932E-03  9.429811313695905E-05
 8.457000000000E+02  3.827678005148182E-03  9.470497841826956E-05
 8.457200000000E+02  3.836022969618689E-03  9.511449259675464E-05
 8.457400000000E+02  3.844395369766527E-03  9.552668002261171E-05
 8.457600000000E+02  3.852795575381389E-03  9.594156529684202E-05
 8.457800000000E+02  3.861223954070231E-03  9.635917327545042E-05
 8.458000000000E+02  3.869680871428435E-03  9.677952907367540E-05
 8.458200000000E+02  3.878166691205274E-03  9.720265807025056E-05
 8.458400000000E+02  3.886681775463621E-03  9.762858591170896E-05
 8.458600000000E+02  3.895226484734075E-03  9.805733851672348E-05
 8.458800000000E+02  3.903801178164287E-03  9.848894208048633E-05
 8.459000000000E+02  3.912406213663383E-03  9.892342307913577E-05
 8.459200000000E+02  3.921041948041593E-03  9.936080827422730E-05
 8.459400000000E+02  3.929708737145843E-03  9.980112471725016E-05
 8.459600000000E+02  3.938406935990966E-03  1.002443997541953E-04
 8.459800000000E+02  3.947136898887303E-03  1.006906610301757E-04
 8.460000000000E+02  3.955898979564209E-03  1.011399364940972E-04
 8.460200000000E+02  3.964693531290376E-03  1.015922544033885E-04
 8.460400000000E+02  3.973520906990778E-03  1.020476433287859E-04
 8.460600000000E+02  3.982381459360174E-03  1.025061321591790E-04
 8.460800000000E+02  3.991275540974068E-03  1.029677501065162E-04
 8.461000000000E+02  4.000203504396435E-03  1.034325267107772E-04
 8.461200000000E+02  4.009165702285060E-03  1.039004918450067E-04
 8.461400000000E+02  4.018162487494068E-03  1.043716757204184E-04
 8.461600000000E+02  4.027194213174301E-03  1.048461088915661E-04
 8.461800000000E+02  4.036261232871132E-03  1.053238222615882E-04
 8.462000000000E+02  4.045363900620528E-03  1.058048470875243E-04
 8.462200000000E+02  4.054502571042557E-03  1.062892149857061E-04
 8.462400000000E+02  4.063677599433533E-03  1.067769579372308E-04
 8.462600000000E+02  4.072889341855728E-03  1.072681082935046E-04
 8.462800000000E+02  4.082138155225998E-03  1.077626987818781E-04
 8.463000000000E+02  4.091424397402312E-03  1.082607625113563E-04
 8.463200000000E+02  4.100748427268939E-03  1.087623329783993E-04
 8.463400000000E+02  4.110110604820313E-03  1.092674440728097E-04
 8.463600000000E+02  4.119511291243325E-03  1.097761300837091E-04
 8.463800000000E+02  4.128950848998499E-03  1.102884257056069E-04
 8.464000000000E+02  4.138429641899926E-03  1.108043660445634E-04
 8.464200000000E+02  4.147948035194130E-03  1.113239866244492E-04
 8.464400000000E+02  4.157506395637871E-03  1.118473233933027E-04
 8.464600000000E+02  4.167105091574993E-03  1.123744127297897E-04
 8.464800000000E+02  4.176744493012343E-03  1.129052914497663E-04
 8.465000000000E+02  4.186424971695061E-03  1.134399968129437E-04
 8.465200000000E+02  4.196146901180556E-03  1.139785665296697E-04
 8.465400000000E+02  4.205910656912545E-03  1.145210387678094E-04
 8.465600000000E+02  4.215716616293851E-03  1.150674521597473E-04
 8.465800000000E+02  4.225565158758739E-03  1.156178458095013E-04
 8.466000000000E+02  4.235456665844996E-03  1.161722592999564E-04
 8.466200000000E+02  4.245391521265159E-03  1.167307327002165E-04
 8.466400000000E+02  4.255370110977365E-03  1.172933065730831E-04
 8.466600000000E+02  4.265392823256188E-03  1.178600219826550E-04
 8.466800000000E+02  4.275460048762687E-03  1.184309205020639E-04
 8.467000000000E+02  4.285572180614297E-03  1.190060442213341E-04
 8.467200000000E+02  4.295729614454662E-03  1.195854357553804E-04
 8.467400000000E+02  4.305932748523041E-03  1.201691382521452E-04
 8.467600000000E+02  4.316181983723773E-03  1.207571954008715E-04
 8.467800000000E+02  4.326477723695258E-03  1.213496514405232E-04
 8.468000000000E+02  4.336820374879397E-03  1.219465511683497E-04
 8.468200000000E+02  4.347210346590554E-03  1.225479399486012E-04
 8.468400000000E+02  4.357648051084733E-03  1.231538637213960E-04
 8.468600000000E+02  4.368133903628686E-03  1.237643690117467E-04
 8.468800000000E+02  4.378668322569359E-03  1.243795029387435E-04
 8.469000000000E+02  4.389251729403043E-03  1.249993132248993E-04
 8.469200000000E+02  4.399884548845103E-03  1.256238482056668E-04
 8.469400000000E+02  4.410567208899500E-03  1.262531568391214E-04
 8.469600000000E+02  4.421300140929002E-03  1.268872887158193E-04
 8.469800000000E+02  4.432083779725131E-03  1.275262940688333E-04
 8.470000000000E+02  4.442918563578938E-03  1.281702237839711E-04
 8.470200000000E+02  4.453804934351517E-03  1.288191294101787E-04
 8.470400000000E+02  4.464743337545573E-03  1.294730631701330E-04
 8.470600000000E+02  4.475734222376728E-03  1.301320779710282E-04
 8.470800000000E+02  4.486778041845683E-03  1.307962274155611E-04
 8.471000000000E+02  4.497875252810606E-03  1.314655658131182E-04
 8.471200000000E+02  4.509026316060134E-03  1.321401481911695E-04
 8.471400000000E+02  4.520231696386953E-03  1.328200303068736E-04
 8.471600000000E+02  4.531491862661614E-03  1.335052686588976E-04
 8.471800000000E+02  4.542807287907478E-03  1.341959204994605E-04
 8.472000000000E+02  4.554178449375555E-03  1.348920438466008E-04
 8.472200000000E+02  4.565605828620803E-03  1.355936974966724E-04
 8.472400000000E+02  4.577089911578380E-03  1.363009410370792E-04
 8.472600000000E+02  4.588631188641058E-03  1.370138348592518E-04
 8.472800000000E+02  4.600230154737258E-03  1.377324401718613E-04
 8.473000000000E+02  4.611887309409720E-03  1.384568190142999E-04
 8.473200000000E+02  4.623603156895131E-03  1.391870342704030E-04
 8.473400000000E+02  4.635378206204625E-03  1.399231496824460E-04
 8.473600000000E+02  4.647212971204918E-03  1.406652298654067E-04
 8.473800000000E+02  4.659107970700588E-03  1.414133403214963E-04
 8.474000000000E+02  4.671063728517150E-03  1.421675474549819E-04
 8.474200000000E+02  4.683080773585030E-03  1.429279185872882E-04
 8.474400000000E+02  4.695159640024731E-03  1.436945219723974E-04
 8.474600000000E+02  4.707300867232806E-03  1.444674268125509E-04
 8.474800000000E+02  4.719504999969096E-03  1.452467032742509E-04
 8.475000000000E+02  4.731772588444760E-03  1.460324225045883E-04
 8.475200000000E+02  4.744104188411750E-03  1.468246566478819E-04
 8.475400000000E+02  4.756500361253233E-03  1.476234788626457E-04
 8.475600000000E+02  4.768961674075354E-03  1.484289633389089E-04
 8.475800000000E+02  4.781488699799852E-03  1.492411853158559E-04
 8.476000000000E+02  4.794082017258557E-03  1.500602210998422E-04
 8.476200000000E+02  4.806742211288555E-03  1.508861480827489E-04
 8.476400000000E+02  4.819469872829107E-03  1.517190447607252E-04
 8.476600000000E+02  4.832265599019629E-03  1.525589907532950E-04
 8.476800000000E+02  4.845129993299379E-03  1.534060668228535E-04
 8.477000000000E+02  4.858063665508213E-03  1.542603548945610E-04
 8.477200000000E+02  4.871067231989123E-03  1.551219380766384E-04
 8.477400000000E+02  4.884141315692214E-03  1.559909006810765E-04
 8.477600000000E+02  4.897286546280014E-03  1.568673282447708E-04
 8.477800000000E+02  4.910503560234716E-03  1.577513075510875E-04
 8.478000000000E+02  4.923793000966737E-03  1.586429266518736E-04
 8.478200000000E+02  4.937155518925151E-03  1.595422748899258E-04
 8.478400000000E+02  4.950591771709744E-03  1.604494429219128E-04
 8.478600000000E+02  4.964102424184846E-03  1.613645227417926E-04
 8.478800000000E+02  4.977688148594885E-03  1.622876077046960E-04
 8.479000000000E+02  4.991349624681909E-03  1.632187925513287E-04
 8.479200000000E+02  5.005087539804880E-03  1.641581734328697E-04
 8.479400000000E+02  5.018902589060938E-03  1.651058479364060E-04
 8.479600000000E+02  5.032795475408639E-03  1.660619151108923E-04
 8.479800000000E+02  5.046766909793186E-03  1.670264754936673E-04
 8.480000000000E+02  5.060817611273819E-03  1.679996311375354E-04
 8.480200000000E+02  5.074948307153164E-03  1.689814856384139E-04
 8.480400000000E+02  5.089159733108886E-03  1.699721441635854E-04
 8.480600000000E+02  5.103452633327444E-03  1.709717134805430E-04
 8.480800000000E+02  5.117827760640373E-03  1.719803019864635E-04
 8.481000000000E+02  5.132285876662450E-03  1.729980197383128E-04
 8.481200000000E+02  5.146827751932692E-03  1.740249784836046E-04
 8.481400000000E+02  5.161454166057494E-03  1.750612916918265E-04
 8.481600000000E+02  5.176165907856317E-03  1.761070745865496E-04
 8.481800000000E+02  5.190963775510075E-03  1.771624441782377E-04
 8.482000000000E+02  5.205848576711887E-03  1.782275192977824E-04
 8.482200000000E+02  5.220821128820814E-03  1.793024206307677E-04
 8.482400000000E+02  5.235882259017842E-03  1.803872707524962E-04
 8.482600000000E+02  5.251032804465249E-03  1.814821941637861E-04
 8.482800000000E+02  5.266273612468384E-03  1.825873173275655E-04
 8.483000000000E+02  5.281605540640652E-03  1.837027687062834E-04
 8.483200000000E+02  5.297029457071154E-03  1.848286788001553E-04
 8.483400000000E+02  5.312546240495872E-03  1.859651801862622E-04
 8.483600000000E+02  5.328156780471619E-03  1.871124075585369E-04
 8.483800000000E+02  5.343861977553268E-03  1.882704977686467E-04
 8.484000000000E+02  5.359662743474342E-03  1.894395898678100E-04
 8.484200000000E+02  5.375560001331076E-03  1.906198251495466E-04
 8.484400000000E+02  5.391554685769515E-03  1.918113471934242E-04
 8.484600000000E+02  5.407647743176618E-03  1.930143019097899E-04
 8.484800000000E+02  5.423840131874728E-03  1.942288375855318E-04
 8.485000000000E+02  5.440132822319630E-03  1.954551049309011E-04
 8.485200000000E+02  5.456526797302617E-03  1.966932571274031E-04
 8.485400000000E+02  5.473023052156360E-03  1.979434498768123E-04
 8.485600000000E+02  5.489622594964555E-03  1.992058414513221E-04
 8.485800000000E+02  5.506326446775821E-03  2.004805927448574E-04
 8.486000000000E+02  5.523135641821790E-03  2.017678673256037E-04
 8.486200000000E+02  5.540051227739137E-03  2.030678314897608E-04
 8.486400000000E+02  5.557074265796446E-03  2.043806543165637E-04
 8.486600000000E+02  5.574205831124901E-03  2.057065077246136E-04
 8.486800000000E+02  5.591447012954107E-03  2.070455665295358E-04
 8.487000000000E+02  5.608798914852424E-03  2.083980085030226E-04
 8.487200000000E+02  5.626262654971706E-03  2.097640144332779E-04
 8.487400000000E+02  5.643839366297592E-03  2.111437681869187E-04
 8.487600000000E+02  5.661530196904208E-03  2.125374567723661E-04
 8.487800000000E+02  5.679336310214391E-03  2.139452704047655E-04
 8.488000000000E+02  5.697258885265037E-03  2.153674025724835E-04
 8.488200000000E+02  5.715299116977769E-03  2.168040501052209E-04
 8.488400000000E+02  5.733458216435332E-03  2.182554132437955E-04
 8.488600000000E+02  5.751737411163402E-03  2.197216957116244E-04
 8.488800000000E+02  5.770137945418429E-03  2.212031047879721E-04
 8.489000000000E+02  5.788661080481224E-03  2.226998513830082E-04
 8.489200000000E+02  5.807308094956668E-03  2.242121501147167E-04
 8.489400000000E+02  5.826080285079903E-03  2.257402193877278E-04
