#Spectra: 1
Emin______Emax       8.427000000000000E+02  8.827000000000000E+02
EminPole__EmaxPole   8.536379956621731E+02  8.738056719122183E+02
dE________Gamma      2.000000000000000E-02  1.000000000000000E-01
Energy               Re[0]                  Im[0]                
 8.427000000000E+02  1.665871582488214E-03  5.430472890199829E-05
 8.427200000000E+02  1.771340353533289E-03  5.490218660259203E-05
 8.427400000000E+02  1.873728674339996E-03  5.548890617612005E-05
 8.427600000000E+02  1.971295860526373E-03  5.605787345659100E-05
 8.427800000000E+02  2.062822319617943E-03  5.660415812008457E-05
 8.428000000000E+02  2.147627843025166E-03  5.712499092042175E-05
 8.428200000000E+02  2.225499766825871E-03  5.761947848919759E-05
 8.428400000000E+02  2.296577244794938E-03  5.808814108930528E-05
 8.428600000000E+02  2.361231052126982E-03  5.853243158137010E-05
 8.428800000000E+02  2.419961824417353E-03  5.895432770885489E-05
 8.429000000000E+02  2.473324669406487E-03  5.935602976032298E-05
 8.429200000000E+02  2.521878913606545E-03  5.973975881330275E-05
 8.429400000000E+02  2.566157861349342E-03  6.010763512921484E-05
 8.429600000000E+02  2.606652818993898E-03  6.046161371975105E-05
 8.429800000000E+02  2.643806487322680E-03  6.080345748544167E-05
 8.430000000000E+02  2.678012073231179E-03  6.113473331360853E-05
 8.430200000000E+02  2.709615619990411E-03  6.145682111616997E-05
 8.430400000000E+02  2.738919944294171E-03  6.177092934620314E-05
 8.430600000000E+02  2.766189195068120E-03  6.207811304218184E-05
 8.430800000000E+02  2.791653464948806E-03  6.237929211508481E-05
 8.431000000000E+02  2.815513149180400E-03  6.267526865091985E-05
 8.431200000000E+02  2.837942907620902E-03  6.296674264649245E-05
 8.431400000000E+02  2.859095179831517E-03  6.325432597449947E-05
 8.431600000000E+02  2.879103255718693E-03  6.353855458483322E-05
 8.431800000000E+02  2.898083931249331E-03  6.381989905780960E-05
 8.432000000000E+02  2.916139790770459E-03  6.409877367354447E-05
 8.432200000000E+02  2.933361160909214E-03  6.437554417584855E-05
 8.432400000000E+02  2.949827779839510E-03  6.465053440451695E-05
 8.432600000000E+02  2.965610222222466E-03  6.492403195621432E-05
 8.432800000000E+02  2.980771115713277E-03  6.519629301665166E-05
 8.433000000000E+02  2.995366180332996E-03  6.546754648854761E-05
 8.433200000000E+02  3.009445117627694E-03  6.573799752243253E-05
 8.433400000000E+02  3.023052372565402E-03  6.600783054162162E-05
 8.433600000000E+02  3.036227787621035E-03  6.627721183869236E-05
 8.433800000000E+02  3.049007165472203E-03  6.654629180881973E-05
 8.434000000000E+02  3.061422754142935E-03  6.681520687498983E-05
 8.434200000000E+02  3.073503666242817E-03  6.708408115141794E-05
 8.434400000000E+02  3.085276242103152E-03  6.735302788415373E-05
 8.434600000000E+02  3.096764365063579E-03  6.762215070168447E-05
 8.434800000000E+02  3.107989735864536E-03  6.789154470319504E-05
 8.435000000000E+02  3.118972112014909E-03  6.816129740781088E-05
 8.435200000000E+02  3.129729517095789E-03  6.843148958454415E-05
 8.435400000000E+02  3.140278424200215E-03  6.870219597962971E-05
 8.435600000000E+02  3.150633917072007E-03  6.897348595541438E-05
 8.435800000000E+02  3.160809831971237E-03  6.924542405281805E-05
 8.436000000000E+02  3.170818882846931E-03  6.951807048762111E-05
 8.436200000000E+02  3.180672772017324E-03  6.979148158932046E-05
 8.436400000000E+02  3.190382288242027E-03  7.006571019002238E-05
 8.436600000000E+02  3.199957393800133E-03  7.034080596979681E-05
 8.436800000000E+02  3.209407301961537E-03  7.061681576398352E-05
 8.437000000000E+02  3.218740546045744E-03  7.089378383720031E-05
 8.437200000000E+02  3.227965041098831E-03  7.117175212813800E-05
 8.437400000000E+02  3.237088139079558E-03  7.145076046867233E-05
 8.437600000000E+02  3.246116678326849E-03  7.173084678036728E-05
 8.437800000000E+02  3.255057027979208E-03  7.201204725101675E-05
 8.438000000000E+02  3.263915127929285E-03  7.229439649353951E-05
 8.438200000000E+02  3.272696524822441E-03  7.257792768925519E-05
 8.438400000000E+02  3.281406404543477E-03  7.286267271728081E-05
 8.438600000000E+02  3.290049621580541E-03  7.314866227161142E-05
 8.438800000000E+02  3.298630725606923E-03  7.343592596722083E-05
 8.439000000000E+02  3.307153985580834E-03  7.372449243637323E-05
 8.439200000000E+02  3.315623411626289E-03  7.401438941619047E-05
 8.439400000000E+02  3.324042774928012E-03  7.430564382839820E-05
 8.439600000000E+02  3.332415625845411E-03  7.459828185205768E-05
 8.439800000000E+02  3.340745310427400E-03  7.489232899000723E-05
 8.440000000000E+02  3.349034985489040E-03  7.518781012964879E-05
 8.440200000000E+02  3.357287632392737E-03  7.548474959864485E-05
 8.440400000000E+02  3.365506069661385E-03  7.578317121602835E-05
 8.440600000000E+02  3.373692964536133E-03  7.608309833917472E-05
 8.440800000000E+02  3.381850843579896E-03  7.638455390703125E-05
 8.441000000000E+02  3.389982102416838E-03  7.668756047996610E-05
 8.441200000000E+02  3.398089014687841E-03  7.699214027654968E-05
 8.441400000000E+02  3.406173740294853E-03  7.729831520755647E-05
 8.441600000000E+02  3.414238332998283E-03  7.760610690744437E-05
 8.441800000000E+02  3.422284747425820E-03  7.791553676353892E-05
 8.442000000000E+02  3.430314845544880E-03  7.822662594313204E-05
 8.442200000000E+02  3.438330402645841E-03  7.853939541867734E-05
 8.442400000000E+02  3.446333112878320E-03  7.885386599125601E-05
 8.442600000000E+02  3.454324594379068E-03  7.917005831245694E-05
 8.442800000000E+02  3.462306394025816E-03  7.948799290481699E-05
 8.443000000000E+02  3.470279991848749E-03  7.980769018093672E-05
 8.443200000000E+02  3.478246805127622E-03  8.012917046138996E-05
 8.443400000000E+02  3.486208192200540E-03  8.045245399152805E-05
 8.443600000000E+02  3.494165456007760E-03  8.077756095726885E-05
 8.443800000000E+02  3.502119847391597E-03  8.110451149995580E-05
 8.444000000000E+02  3.510072568171859E-03  8.143332573036794E-05
 8.444200000000E+02  3.518024774014621E-03  8.176402374194083E-05
 8.444400000000E+02  3.525977577109986E-03  8.209662562327620E-05
 8.444600000000E+02  3.533932048673949E-03  8.243115146998294E-05
 8.444800000000E+02  3.541889221287355E-03  8.276762139591525E-05
 8.445000000000E+02  3.549850091084563E-03  8.310605554384987E-05
 8.445200000000E+02  3.557815619802697E-03  8.344647409565005E-05
 8.445400000000E+02  3.565786736702020E-03  8.378889728195430E-05
 8.445600000000E+02  3.573764340366753E-03  8.413334539143166E-05
 8.445800000000E+02  3.581749300394923E-03  8.447983877963410E-05
 8.446000000000E+02  3.589742458985252E-03  8.482839787747994E-05
 8.446200000000E+02  3.597744632428520E-03  8.517904319939583E-05
 8.446400000000E+02  3.605756612509817E-03  8.553179535115041E-05
 8.446600000000E+02  3.613779167828162E-03  8.588667503739057E-05
 8.446800000000E+02  3.621813045039107E-03  8.624370306892452E-05
 8.447000000000E+02  3.629858970025519E-03  8.660290036974937E-05
 8.447200000000E+02  3.637917649001474E-03  8.696428798386359E-05
 8.447400000000E+02  3.645989769553840E-03  8.732788708186657E-05
 8.447600000000E+02  3.654076001625385E-03  8.769371896737529E-05
 8.447800000000E+02  3.662176998443696E-03  8.806180508326375E-05
 8.448000000000E+02  3.670293397399203E-03  8.843216701774630E-05
 8.448200000000E+02  3.678425820875494E-03  8.880482651031289E-05
 8.448400000000E+02  3.686574877035297E-03  8.917980545753722E-05
 8.448600000000E+02  3.694741160564784E-03  8.955712591875865E-05
 8.448800000000E+02  3.702925253378735E-03  8.993681012166165E-05
 8.449000000000E+02  3.711127725289285E-03  9.031888046774972E-05
 8.449200000000E+02  3.719349134640254E-03  9.070335953773373E-05
 8.449400000000E+02  3.727590028909338E-03  9.109027009684146E-05
 8.449600000000E+02  3.735850945280124E-03  9.147963510005124E-05
 8.449800000000E+02  3.744132411185654E-03  9.187147769726598E-05
 8.450000000000E+02  3.752434944825434E-03  9.226582123843039E-05
 8.450200000000E+02  3.760759055657316E-03  9.266268927859729E-05
 8.450400000000E+02  3.769105244865767E-03  9.306210558295478E-05
 8.450600000000E+02  3.777474005808138E-03  9.346409413181498E-05
 8.450800000000E+02  3.785865824439853E-03  9.386867912557518E-05
 8.451000000000E+02  3.794281179720029E-03  9.427588498965257E-05
 8.451200000000E+02  3.802720543998660E-03  9.468573637940261E-05
 8.451400000000E+02  3.811184383386187E-03  9.509825818502351E-05
 8.451600000000E+02  3.819673158106689E-03  9.551347553644779E-05
 8.451800000000E+02  3.828187322835592E-03  9.593141380823724E-05
 8.452000000000E+02  3.836727327022738E-03  9.635209862447312E-05
 8.452200000000E+02  3.845293615201438E-03  9.677555586365082E-05
 8.452400000000E+02  3.853886627284787E-03  9.720181166358721E-05
 8.452600000000E+02  3.862506798849428E-03  9.763089242633582E-05
 8.452800000000E+02  3.871154561407710E-03  9.806282482312328E-05
 8.453000000000E+02  3.879830342668955E-03  9.849763579930260E-05
 8.453200000000E+02  3.888534566790126E-03  9.893535257933072E-05
 8.453400000000E+02  3.897267654616918E-03  9.937600267177493E-05
 8.453600000000E+02  3.906030023915301E-03  9.981961387434693E-05
 8.453800000000E+02  3.914822089594370E-03  1.002662142789730E-04
 8.454000000000E+02  3.923644263920964E-03  1.007158322768978E-04
 8.454200000000E+02  3.932496956726226E-03  1.011684965638327E-04
 8.454400000000E+02  3.941380575604902E-03  1.016242361451412E-04
 8.454600000000E+02  3.950295526107326E-03  1.020830803410743E-04
 8.454800000000E+02  3.959242211925131E-03  1.025450587920523E-04
 8.455000000000E+02  3.968221035070081E-03  1.030102014639973E-04
 8.455200000000E+02  3.977232396047467E-03  1.034785386537219E-04
 8.455400000000E+02  3.986276694023454E-03  1.039501009943714E-04
 8.455600000000E+02  3.995354326987274E-03  1.044249194609310E-04
 8.455800000000E+02  4.004465691908124E-03  1.049030253757865E-04
 8.456000000000E+02  4.013611184887479E-03  1.053844504143574E-04
 8.456200000000E+02  4.022791201306720E-03  1.058692266107927E-04
 8.456400000000E+02  4.032006135970326E-03  1.063573863637407E-04
 8.456600000000E+02  4.041256383245256E-03  1.068489624421845E-04
 8.456800000000E+02  4.050542337196289E-03  1.073439879913592E-04
 8.457000000000E+02  4.059864391717628E-03  1.078424965387438E-04
 8.457200000000E+02  4.069222940661228E-03  1.083445220001306E-04
 8.457400000000E+02  4.078618377961633E-03  1.088500986857839E-04
 8.457600000000E+02  4.088051097757990E-03  1.093592613066756E-04
 8.457800000000E+02  4.097521494512775E-03  1.098720449808149E-04
 8.458000000000E+02  4.107029963128070E-03  1.103884852396657E-04
 8.458200000000E+02  4.116576899059048E-03  1.109086180346566E-04
 8.458400000000E+02  4.126162698425013E-03  1.114324797437884E-04
 8.458600000000E+02  4.135787758118145E-03  1.119601071783361E-04
 8.458800000000E+02  4.145452475910074E-03  1.124915375896560E-04
 8.459000000000E+02  4.155157250556231E-03  1.130268086760926E-04
 8.459200000000E+02  4.164902481898480E-03  1.135659585899934E-04
 8.459400000000E+02  4.174688570965748E-03  1.141090259448336E-04
 8.459600000000E+02  4.184515920072932E-03  1.146560498224501E-04
 8.459800000000E+02  4.194384932918412E-03  1.152070697803909E-04
 8.460000000000E+02  4.204296014679738E-03  1.157621258593824E-04
 8.460200000000E+02  4.214249572108159E-03  1.163212585909159E-04
 8.460400000000E+02  4.224246013621700E-03  1.168845090049576E-04
 8.460600000000E+02  4.234285749396978E-03  1.174519186377847E-04
 8.460800000000E+02  4.244369191460168E-03  1.180235295399506E-04
 8.461000000000E+02  4.254496753776487E-03  1.185993842843805E-04
 8.461200000000E+02  4.264668852338946E-03  1.191795259746066E-04
 8.461400000000E+02  4.274885905256342E-03  1.197639982531349E-04
 8.461600000000E+02  4.285148332839943E-03  1.203528453099605E-04
 8.461800000000E+02  4.295456557690149E-03  1.209461118912220E-04
 8.462000000000E+02  4.305811004781664E-03  1.215438433080085E-04
 8.462200000000E+02  4.316212101548672E-03  1.221460854453144E-04
 8.462400000000E+02  4.326660277969206E-03  1.227528847711521E-04
 8.462600000000E+02  4.337155966649004E-03  1.233642883458217E-04
 8.462800000000E+02  4.347699602905129E-03  1.239803438313426E-04
 8.463000000000E+02  4.358291624848958E-03  1.246010995010521E-04
 8.463200000000E+02  4.368932473469069E-03  1.252266042493733E-04
 8.463400000000E+02  4.379622592713860E-03  1.258569076017543E-04
 8.463600000000E+02  4.390362429573867E-03  1.264920597247883E-04
 8.463800000000E+02  4.401152434163964E-03  1.271321114365088E-04
 8.464000000000E+02  4.411993059805592E-03  1.277771142168806E-04
 8.464200000000E+02  4.422884763108787E-03  1.284271202184671E-04
 8.464400000000E+02  4.433828004054354E-03  1.290821822773039E-04
 8.464600000000E+02  4.444823246075847E-03  1.297423539239579E-04
 8.464800000000E+02  4.455870956142149E-03  1.304076893948040E-04
 8.465000000000E+02  4.466971604839588E-03  1.310782436434903E-04
 8.465200000000E+02  4.478125666454725E-03  1.317540723526336E-04
 8.465400000000E+02  4.489333619057123E-03  1.324352319457182E-04
 8.465600000000E+02  4.500595944582424E-03  1.331217795992207E-04
 8.465800000000E+02  4.511913128916040E-03  1.338137732549621E-04
 8.466000000000E+02  4.523285661976728E-03  1.345112716326892E-04
 8.466200000000E+02  4.534714037800942E-03  1.352143342428932E-04
 8.466400000000E+02  4.546198754627516E-03  1.359230213998689E-04
 8.466600000000E+02  4.557740314982855E-03  1.366373942350254E-04
 8.466800000000E+02  4.569339225766673E-03  1.373575147104427E-04
 8.467000000000E+02  4.580995998338293E-03  1.380834456326952E-04
 8.467200000000E+02  4.592711148603451E-03  1.388152506669319E-04
 8.467400000000E+02  4.604485197102053E-03  1.395529943512327E-04
 8.467600000000E+02  4.616318669096314E-03  1.402967421112359E-04
 8.467800000000E+02  4.628212094659712E-03  1.410465602750580E-04
 8.468000000000E+02  4.640166008767007E-03  1.418025160884900E-04
 8.468200000000E+02  4.652180951384457E-03  1.425646777305013E-04
 8.468400000000E+02  4.664257467561512E-03  1.433331143290369E-04
 8.468600000000E+02  4.676396107523155E-03  1.441078959771337E-04
 8.468800000000E+02  4.688597426762989E-03  1.448890937493449E-04
 8.469000000000E+02  4.700861986137544E-03  1.456767797184962E-04
 8.469200000000E+02  4.713190351961554E-03  1.464710269727618E-04
 8.469400000000E+02  4.725583096104184E-03  1.472719096331001E-04
 8.469600000000E+02  4.738040796086406E-03  1.480795028710113E-04
 8.469800000000E+02  4.750564035179519E-03  1.488938829266721E-04
 8.470000000000E+02  4.763153402504741E-03  1.497151271274204E-04
 8.470200000000E+02  4.775809493134203E-03  1.505433139066171E-04
 8.470400000000E+02  4.788532908192930E-03  1.513785228228873E-04
 8.470600000000E+02  4.801324254962274E-03  1.522208345797536E-04
 8.470800000000E+02  4.814184146984789E-03  1.530703310456656E-04
 8.471000000000E+02  4.827113204170105E-03  1.539270952744357E-04
 8.471200000000E+02  4.840112052902646E-03  1.547912115261014E-04
 8.471400000000E+02  4.853181326150528E-03  1.556627652882017E-04
 8.471600000000E+02  4.866321663576018E-03  1.565418432975050E-04
 8.471800000000E+02  4.879533711647547E-03  1.574285335621783E-04
 8.472000000000E+02  4.892818123753393E-03  1.583229253844157E-04
 8.472200000000E+02  4.906175560316844E-03  1.592251093835402E-04
 8.472400000000E+02  4.919606688913104E-03  1.601351775195823E-04
 8.472600000000E+02  4.933112184388037E-03  1.610532231173574E-04
 8.472800000000E+02  4.946692728978469E-03  1.619793408910450E-04
 8.473000000000E+02  4.960349012434429E-03  1.629136269692836E-04
 8.473200000000E+02  4.974081732143368E-03  1.638561789207982E-04
 8.473400000000E+02  4.987891593255940E-03  1.648070957805720E-04
 8.473600000000E+02  5.001779308814248E-03  1.657664780765688E-04
 8.473800000000E+02  5.015745599881580E-03  1.667344278570305E-04
 8.474000000000E+02  5.029791195674657E-03  1.677110487183543E-04
 8.474200000000E+02  5.043916833697750E-03  1.686964458335743E-04
 8.474400000000E+02  5.058123259879074E-03  1.696907259814451E-04
 8.474600000000E+02  5.072411228709233E-03  1.706939975761669E-04
 8.474800000000E+02  5.086781503382298E-03  1.717063706977437E-04
 8.475000000000E+02  5.101234855938924E-03  1.727279571230075E-04
 8.475200000000E+02  5.115772067411938E-03  1.737588703573177E-04
 8.475400000000E+02  5.130393927974431E-03  1.747992256669504E-04
 8.475600000000E+02  5.145101237090462E-03  1.758491401122068E-04
 8.475800000000E+02  5.159894803668051E-03  1.769087325812417E-04
 8.476000000000E+02  5.174775446215209E-03  1.779781238246444E-04
 8.476200000000E+02  5.189743992998250E-03  1.790574364907887E-04
 8.476400000000E+02  5.204801282203377E-03  1.801467951619599E-04
 8.476600000000E+02  5.219948162100575E-03  1.812463263912969E-04
 8.476800000000E+02  5.235185491210870E-03  1.823561587405604E-04
 8.477000000000E+02  5.250514138476240E-03  1.834764228187420E-04
 8.477200000000E+02  5.265934983432890E-03  1.846072513215551E-04
 8.477400000000E+02  5.281448916387345E-03  1.857487790718069E-04
 8.477600000000E+02  5.297056838595878E-03  1.869011430606955E-04
 8.477800000000E+02  5.312759662447493E-03  1.880644824900420E-04
 8.478000000000E+02  5.328558311649596E-03  1.892389388154911E-04
 8.478200000000E+02  5.344453721417977E-03  1.904246557906983E-04
 8.478400000000E+02  5.360446838669449E-03  1.916217795125333E-04
 8.478600000000E+02  5.376538622218830E-03  1.928304584673308E-04
 8.478800000000E+02  5.392730042979205E-03  1.940508435782081E-04
 8.479000000000E+02  5.409022084165963E-03  1.952830882534839E-04
 8.479200000000E+02  5.425415741505006E-03  1.965273484362224E-04
 8.479400000000E+02  5.441912023444612E-03  1.977837826549439E-04
 8.479600000000E+02  5.458511951371650E-03  1.990525520755170E-04
 8.479800000000E+02  5.475216559831713E-03  2.003338205542802E-04
 8.480000000000E+02  5.492026896753624E-03  2.016277546924151E-04
 8.480200000000E+02  5.508944023678373E-03  2.029345238916099E-04
 8.480400000000E+02  5.525969015992459E-03  2.042543004110483E-04
 8.480600000000E+02  5.543102963165881E-03  2.055872594257605E-04
 8.480800000000E+02  5.560346968994652E-03  2.069335790863728E-04
 8.481000000000E+02  5.577702151848418E-03  2.082934405802889E-04
 8.481200000000E+02  5.595169644922824E-03  2.096670281943592E-04
 8.481400000000E+02  5.612750596496923E-03  2.110545293790560E-04
 8.481600000000E+02  5.630446170195757E-03  2.124561348142198E-04
 8.481800000000E+02  5.648257545258548E-03  2.138720384764014E-04
 8.482000000000E+02  5.666185916811703E-03  2.153024377078534E-04
 8.482200000000E+02  5.684232496148152E-03  2.167475332872254E-04
 8.482400000000E+02  5.702398511011693E-03  2.182075295019937E-04
 8.482600000000E+02  5.720685205887786E-03  2.196826342226866E-04
 8.482800000000E+02  5.739093842299835E-03  2.211730589789546E-04
 8.483000000000E+02  5.757625699112042E-03  2.226790190375367E-04
 8.483200000000E+02  5.776282072838288E-03  2.242007334821771E-04
 8.483400000000E+02  5.795064277957619E-03  2.257384252955488E-04
 8.483600000000E+02  5.813973647236305E-03  2.272923214432441E-04
 8.483800000000E+02  5.833011532056729E-03  2.288626529598868E-04
 8.484000000000E+02  5.852179302753183E-03  2.304496550374346E-04
 8.484200000000E+02  5.871478348954826E-03  2.320535671157313E-04
 8.484400000000E+02  5.890910079936166E-03  2.336746329753733E-04
 8.484600000000E+02  5.910475924974639E-03  2.353131008329659E-04
 8.484800000000E+02  5.930177333716351E-03  2.369692234388286E-04
 8.485000000000E+02  5.950015776549377E-03  2.386432581772338E-04
 8.485200000000E+02  5.969992744985483E-03  2.403354671692487E-04
 8.485400000000E+02  5.990109752049805E-03  2.420461173782519E-04
 8.485600000000E+02  6.010368332679449E-03  2.437754807182230E-04
 8.485800000000E+02  6.030770044130605E-03  2.455238341648637E-04
 8.486000000000E+02  6.051316466394706E-03  2.472914598696651E-04
 8.486200000000E+02  6.072009202623931E-03  2.490786452769739E-04
 8.486400000000E+02  6.092849879565918E-03  2.508856832441944E-04
