#Spectra: 1
Emin______Emax       8.427000000000000E+02  8.827000000000000E+02
EminPole__EmaxPole   8.532323667758745E+02  8.733056042567176E+02
dE________Gamma      2.000000000000000E-02  1.000000000000000E-01
Energy               Re[0]                  Im[0]                
 8.427000000000E+02  1.871614928197459E-03  6.543833679893608E-05
 8.427200000000E+02  1.990106127886607E-03  6.616919878042917E-05
 8.427400000000E+02  2.105158734073866E-03  6.688731366429630E-05
 8.427600000000E+02  2.214820728031842E-03  6.758423092765080E-05
 8.427800000000E+02  2.317724108212627E-03  6.825400894465761E-05
 8.428000000000E+02  2.413105468553119E-03  6.889330844409952E-05
 8.428200000000E+02  2.500725523637505E-03  6.950104937333751E-05
 8.428400000000E+02  2.580739417148888E-03  7.007785442604232E-05
 8.428600000000E+02  2.653562003972503E-03  7.062546984622347E-05
 8.428800000000E+02  2.719753786086326E-03  7.114627446033238E-05
 8.429000000000E+02  2.779936404255634E-03  7.164291557133896E-05
 8.429200000000E+02  2.834736301103548E-03  7.211806595869214E-05
 8.429400000000E+02  2.884750815550836E-03  7.257427739237838E-05
 8.429600000000E+02  2.930530267411143E-03  7.301390299448961E-05
 8.429800000000E+02  2.972570543518381E-03  7.343906484932200E-05
 8.430000000000E+02  3.011312095464823E-03  7.385164926609790E-05
 8.430200000000E+02  3.047142545886110E-03  7.425331762880455E-05
 8.430400000000E+02  3.080401096575207E-03  7.464552505234745E-05
 8.430600000000E+02  3.111383634225736E-03  7.502954208664237E-05
 8.430800000000E+02  3.140347895820298E-03  7.540647671674823E-05
 8.431000000000E+02  3.167518351421255E-03  7.577729518045768E-05
 8.431200000000E+02  3.193090642533048E-03  7.614284090184595E-05
 8.431400000000E+02  3.217235519894872E-03  7.650385129481465E-05
 8.431600000000E+02  3.240102283414685E-03  7.686097244459824E-05
 8.431800000000E+02  3.261821757285050E-03  7.721477180627580E-05
 8.432000000000E+02  3.282508846791892E-03  7.756574911781339E-05
 8.432200000000E+02  3.302264727194700E-03  7.791434574220338E-05
 8.432400000000E+02  3.321178713728881E-03  7.826095264793094E-05
 8.432600000000E+02  3.339329857885532E-03  7.860591722051923E-05
 8.432800000000E+02  3.356788310179921E-03  7.894954907687043E-05
 8.433000000000E+02  3.373616484473392E-03  7.929212503220158E-05
 8.433200000000E+02  3.389870054011409E-03  7.963389334843467E-05
 8.433400000000E+02  3.405598804890007E-03  7.997507737389491E-05
 8.433600000000E+02  3.420847368741999E-03  8.031587866743550E-05
 8.433800000000E+02  3.435655853041940E-03  8.065647968558850E-05
 8.434000000000E+02  3.450060384532804E-03  8.099704609897755E-05
 8.434200000000E+02  3.464093578822435E-03  8.133772879373456E-05
 8.434400000000E+02  3.477784947132124E-03  8.167866560482465E-05
 8.434600000000E+02  3.491161249442547E-03  8.201998282076831E-05
 8.434800000000E+02  3.504246801830133E-03  8.236179649304062E-05
 8.435000000000E+02  3.517063744568876E-03  8.270421357821495E-05
 8.435200000000E+02  3.529632276555447E-03  8.304733293658515E-05
 8.435400000000E+02  3.541970860762404E-03  8.339124620733770E-05
 8.435600000000E+02  3.554096404711156E-03  8.373603857732333E-05
 8.435800000000E+02  3.566024419356874E-03  8.408178945788338E-05
 8.436000000000E+02  3.577769159274963E-03  8.442857308207585E-05
 8.436200000000E+02  3.589343746615400E-03  8.477645903280992E-05
 8.436400000000E+02  3.600760280934685E-03  8.512551271088861E-05
 8.436600000000E+02  3.612029936714020E-03  8.547579575067343E-05
 8.436800000000E+02  3.623163050117578E-03  8.582736638999144E-05
 8.437000000000E+02  3.634169196328548E-03  8.618027979999103E-05
 8.437200000000E+02  3.645057258617535E-03  8.653458837985853E-05
 8.437400000000E+02  3.655835490141477E-03  8.689034202065891E-05
 8.437600000000E+02  3.666511569337739E-03  8.724758834197446E-05
 8.437800000000E+02  3.677092649664745E-03  8.760637290454611E-05
 8.438000000000E+02  3.687585404342420E-03  8.796673940169938E-05
 8.438200000000E+02  3.697996066662210E-03  8.832872983197838E-05
 8.438400000000E+02  3.708330466364282E-03  8.869238465510743E-05
 8.438600000000E+02  3.718594062517508E-03  8.905774293313478E-05
 8.438800000000E+02  3.728791973284203E-03  8.942484245838146E-05
 8.439000000000E+02  3.738929002905053E-03  8.979371986962443E-05
 8.439200000000E+02  3.749009666199752E-03  9.016441075777213E-05
 8.439400000000E+02  3.759038210843373E-03  9.053694976213399E-05
 8.439600000000E+02  3.769018637648909E-03  9.091137065826725E-05
 8.439800000000E+02  3.778954719058813E-03  9.128770643826513E-05
 8.440000000000E+02  3.788850016026568E-03  9.166598938424914E-05
 8.440200000000E+02  3.798707893447470E-03  9.204625113575192E-05
 8.440400000000E+02  3.808531534281771E-03  9.242852275158886E-05
 8.440600000000E+02  3.818323952495972E-03  9.281283476676147E-05
 8.440800000000E+02  3.828088004936035E-03  9.319921724487195E-05
 8.441000000000E+02  3.837826402232753E-03  9.358769982647189E-05
 8.441200000000E+02  3.847541718829995E-03  9.397831177374131E-05
 8.441400000000E+02  3.857236402216243E-03  9.437108201182445E-05
 8.441600000000E+02  3.866912781432126E-03  9.476603916714606E-05
 8.441800000000E+02  3.876573074919050E-03  9.516321160297587E-05
 8.442000000000E+02  3.886219397767400E-03  9.556262745248934E-05
 8.442200000000E+02  3.895853768416945E-03  9.596431464955582E-05
 8.442400000000E+02  3.905478114857112E-03  9.636830095744924E-05
 8.442600000000E+02  3.915094280370041E-03  9.677461399566768E-05
 8.442800000000E+02  3.924704028854941E-03  9.718328126502309E-05
 8.443000000000E+02  3.934309049769230E-03  9.759433017115592E-05
 8.443200000000E+02  3.943910962717915E-03  9.800778804660326E-05
 8.443400000000E+02  3.953511321720216E-03  9.842368217155079E-05
 8.443600000000E+02  3.963111619179525E-03  9.884203979337113E-05
 8.443800000000E+02  3.972713289580560E-03  9.926288814505839E-05
 8.444000000000E+02  3.982317712935267E-03  9.968625446264702E-05
 8.444200000000E+02  3.991926217997467E-03  1.001121660016978E-04
 8.444400000000E+02  4.001540085263610E-03  1.005406500529319E-04
 8.444600000000E+02  4.011160549777043E-03  1.009717339570809E-04
 8.444800000000E+02  4.020788803749711E-03  1.014054451190149E-04
 8.445000000000E+02  4.030425999015785E-03  1.018418110212138E-04
 8.445200000000E+02  4.040073249329325E-03  1.022808592366259E-04
 8.445400000000E+02  4.049731632517858E-03  1.027226174409754E-04
 8.445600000000E+02  4.059402192502073E-03  1.031671134245513E-04
 8.445800000000E+02  4.069085941191450E-03  1.036143751035324E-04
 8.446000000000E+02  4.078783860264834E-03  1.040644305308728E-04
 8.446200000000E+02  4.088496902843962E-03  1.045173079067985E-04
 8.446400000000E+02  4.098225995067492E-03  1.049730355889366E-04
 8.446600000000E+02  4.107972037572612E-03  1.054316421021086E-04
 8.446800000000E+02  4.117735906890564E-03  1.058931561478236E-04
 8.447000000000E+02  4.127518456761693E-03  1.063576066134868E-04
 8.447200000000E+02  4.137320519376084E-03  1.068250225813560E-04
 8.447400000000E+02  4.147142906544023E-03  1.072954333372603E-04
 8.447600000000E+02  4.156986410801693E-03  1.077688683791111E-04
 8.447800000000E+02  4.166851806455979E-03  1.082453574252148E-04
 8.448000000000E+02  4.176739850572258E-03  1.087249304224130E-04
 8.448200000000E+02  4.186651283909388E-03  1.092076175540620E-04
 8.448400000000E+02  4.196586831804685E-03  1.096934492478679E-04
 8.448600000000E+02  4.206547205012694E-03  1.101824561835961E-04
 8.448800000000E+02  4.216533100499996E-03  1.106746693006614E-04
 8.449000000000E+02  4.226545202199567E-03  1.111701198056200E-04
 8.449200000000E+02  4.236584181726742E-03  1.116688391795659E-04
 8.449400000000E+02  4.246650699059002E-03  1.121708591854516E-04
 8.449600000000E+02  4.256745403182485E-03  1.126762118753403E-04
 8.449800000000E+02  4.266868932706545E-03  1.131849295975973E-04
 8.450000000000E+02  4.277021916448791E-03  1.136970450040314E-04
 8.450200000000E+02  4.287204973992018E-03  1.142125910570008E-04
 8.450400000000E+02  4.297418716214974E-03  1.147316010364829E-04
 8.450600000000E+02  4.307663745798500E-03  1.152541085471188E-04
 8.450800000000E+02  4.317940657708232E-03  1.157801475252463E-04
 8.451000000000E+02  4.328250039655590E-03  1.163097522459218E-04
 8.451200000000E+02  4.338592472538083E-03  1.168429573299387E-04
 8.451400000000E+02  4.348968530860214E-03  1.173797977508500E-04
 8.451600000000E+02  4.359378783136220E-03  1.179203088420063E-04
 8.451800000000E+02  4.369823792275252E-03  1.184645263036038E-04
 8.452000000000E+02  4.380304115950663E-03  1.190124862097600E-04
 8.452200000000E+02  4.390820306953829E-03  1.195642250156169E-04
 8.452400000000E+02  4.401372913533251E-03  1.201197795644745E-04
 8.452600000000E+02  4.411962479720446E-03  1.206791870949668E-04
 8.452800000000E+02  4.422589545642609E-03  1.212424852482808E-04
 8.453000000000E+02  4.433254647823247E-03  1.218097120754225E-04
 8.453200000000E+02  4.443958319471179E-03  1.223809060445384E-04
 8.453400000000E+02  4.454701090759021E-03  1.229561060482953E-04
 8.453600000000E+02  4.465483489090827E-03  1.235353514113187E-04
 8.453800000000E+02  4.476306039360654E-03  1.241186818977046E-04
 8.454000000000E+02  4.487169264201563E-03  1.247061377185977E-04
 8.454200000000E+02  4.498073684226076E-03  1.252977595398479E-04
 8.454400000000E+02  4.509019818258537E-03  1.258935884897424E-04
 8.454600000000E+02  4.520008183559492E-03  1.264936661668290E-04
 8.454800000000E+02  4.531039296043117E-03  1.270980346478219E-04
 8.455000000000E+02  4.542113670487413E-03  1.277067364955993E-04
 8.455200000000E+02  4.553231820737963E-03  1.283198147672967E-04
 8.455400000000E+02  4.564394259905664E-03  1.289373130225078E-04
 8.455600000000E+02  4.575601500558325E-03  1.295592753315756E-04
 8.455800000000E+02  4.586854054907089E-03  1.301857462840015E-04
 8.456000000000E+02  4.598152434987341E-03  1.308167709969654E-04
 8.456200000000E+02  4.609497152834948E-03  1.314523951239537E-04
 8.456400000000E+02  4.620888720657654E-03  1.320926648635150E-04
 8.456600000000E+02  4.632327651002134E-03  1.327376269681338E-04
 8.456800000000E+02  4.643814456917068E-03  1.333873287532324E-04
 8.457000000000E+02  4.655349652112158E-03  1.340418181063070E-04
 8.457200000000E+02  4.666933751113338E-03  1.347011434961885E-04
 8.457400000000E+02  4.678567269415023E-03  1.353653539824606E-04
 8.457600000000E+02  4.690250723628260E-03  1.360344992249969E-04
 8.457800000000E+02  4.701984631626850E-03  1.367086294936650E-04
 8.458000000000E+02  4.713769512689583E-03  1.373877956781714E-04
 8.458200000000E+02  4.725605887640549E-03  1.380720492980609E-04
 8.458400000000E+02  4.737494278986325E-03  1.387614425128816E-04
 8.458600000000E+02  4.749435211051273E-03  1.394560281325038E-04
 8.458800000000E+02  4.761429210110188E-03  1.401558596276142E-04
 8.459000000000E+02  4.773476804519130E-03  1.408609911403765E-04
 8.459200000000E+02  4.785578524844306E-03  1.415714774952717E-04
 8.459400000000E+02  4.797734903989071E-03  1.422873742101159E-04
 8.459600000000E+02  4.809946477319191E-03  1.430087375072624E-04
 8.459800000000E+02  4.822213782786828E-03  1.437356243249989E-04
 8.460000000000E+02  4.834537361052685E-03  1.444680923291280E-04
 8.460200000000E+02  4.846917755607292E-03  1.452061999247589E-04
 8.460400000000E+02  4.859355512890827E-03  1.459500062682921E-04
 8.460600000000E+02  4.871851182411734E-03  1.466995712796180E-04
 8.460800000000E+02  4.884405316864667E-03  1.474549556545273E-04
 8.461000000000E+02  4.897018472247395E-03  1.482162208773386E-04
 8.461200000000E+02  4.909691207976754E-03  1.489834292337492E-04
 8.461400000000E+02  4.922424087004094E-03  1.497566438239204E-04
 8.461600000000E+02  4.935217675930070E-03  1.505359285757839E-04
 8.461800000000E+02  4.948072545118958E-03  1.513213482586038E-04
 8.462000000000E+02  4.960989268812219E-03  1.521129684967684E-04
 8.462200000000E+02  4.973968425242306E-03  1.529108557838455E-04
 8.462400000000E+02  4.987010596745351E-03  1.537150774968817E-04
 8.462600000000E+02  5.000116369874665E-03  1.545257019109783E-04
 8.462800000000E+02  5.013286335513039E-03  1.553427982141195E-04
 8.463000000000E+02  5.026521088985869E-03  1.561664365222892E-04
 8.463200000000E+02  5.039821230173833E-03  1.569966878948638E-04
 8.463400000000E+02  5.053187363625680E-03  1.578336243502859E-04
 8.463600000000E+02  5.066620098671356E-03  1.586773188820436E-04
 8.463800000000E+02  5.080120049535269E-03  1.595278454749410E-04
 8.464000000000E+02  5.093687835449738E-03  1.603852791216840E-04
 8.464200000000E+02  5.107324080768907E-03  1.612496958397755E-04
 8.464400000000E+02  5.121029415083073E-03  1.621211726887307E-04
 8.464600000000E+02  5.134804473333495E-03  1.629997877876335E-04
 8.464800000000E+02  5.148649895927656E-03  1.638856203330138E-04
 8.465000000000E+02  5.162566328855255E-03  1.647787506170849E-04
 8.465200000000E+02  5.176554423804693E-03  1.656792600463221E-04
 8.465400000000E+02  5.190614838280515E-03  1.665872311604090E-04
 8.465600000000E+02  5.204748235721335E-03  1.675027476515528E-04
 8.465800000000E+02  5.218955285618969E-03  1.684258943841740E-04
 8.466000000000E+02  5.233236663638051E-03  1.693567574149856E-04
 8.466200000000E+02  5.247593051736953E-03  1.702954240134683E-04
 8.466400000000E+02  5.262025138289490E-03  1.712419826827517E-04
 8.466600000000E+02  5.276533618207781E-03  1.721965231809027E-04
 8.466800000000E+02  5.291119193066293E-03  1.731591365426505E-04
 8.467000000000E+02  5.305782571226956E-03  1.741299151015360E-04
 8.467200000000E+02  5.320524467965455E-03  1.751089525125082E-04
 8.467400000000E+02  5.335345605599183E-03  1.760963437749774E-04
 8.467600000000E+02  5.350246713615949E-03  1.770921852563326E-04
 8.467800000000E+02  5.365228528804756E-03  1.780965747159337E-04
 8.468000000000E+02  5.380291795387489E-03  1.791096113295951E-04
 8.468200000000E+02  5.395437265152368E-03  1.801313957145675E-04
 8.468400000000E+02  5.410665697589142E-03  1.811620299550299E-04
 8.468600000000E+02  5.425977860025523E-03  1.822016176281072E-04
 8.468800000000E+02  5.441374527765660E-03  1.832502638304228E-04
 8.469000000000E+02  5.456856484230206E-03  1.843080752051986E-04
 8.469200000000E+02  5.472424521098223E-03  1.853751599699221E-04
 8.469400000000E+02  5.488079438451011E-03  1.864516279445853E-04
 8.469600000000E+02  5.503822044917765E-03  1.875375905805140E-04
 8.469800000000E+02  5.519653157823370E-03  1.886331609898051E-04
 8.470000000000E+02  5.535573603338046E-03  1.897384539753727E-04
 8.470200000000E+02  5.551584216629428E-03  1.908535860616423E-04
 8.470400000000E+02  5.567685842016419E-03  1.919786755258840E-04
 8.470600000000E+02  5.583879333125580E-03  1.931138424302109E-04
 8.470800000000E+02  5.600165553049917E-03  1.942592086542708E-04
 8.471000000000E+02  5.616545374509575E-03  1.954148979286168E-04
 8.471200000000E+02  5.633019680015501E-03  1.965810358688150E-04
 8.471400000000E+02  5.649589362035357E-03  1.977577500102721E-04
 8.471600000000E+02  5.666255323161955E-03  1.989451698438153E-04
 8.471800000000E+02  5.683018476284558E-03  2.001434268520508E-04
 8.472000000000E+02  5.699879744762654E-03  2.013526545465069E-04
 8.472200000000E+02  5.716840062602757E-03  2.025729885055832E-04
 8.472400000000E+02  5.733900374637875E-03  2.038045664133404E-04
 8.472600000000E+02  5.751061636710048E-03  2.050475280991305E-04
 8.472800000000E+02  5.768324815855905E-03  2.063020155781045E-04
 8.473000000000E+02  5.785690890495141E-03  2.075681730926190E-04
 8.473200000000E+02  5.803160850622525E-03  2.088461471545475E-04
 8.473400000000E+02  5.820735698002703E-03  2.101360865885510E-04
 8.473600000000E+02  5.838416446368751E-03  2.114381425762986E-04
 8.473800000000E+02  5.856204121623965E-03  2.127524687016866E-04
 8.474000000000E+02  5.874099762047130E-03  2.140792209970674E-04
 8.474200000000E+02  5.892104418501500E-03  2.154185579905281E-04
 8.474400000000E+02  5.910219154647396E-03  2.167706407542308E-04
 8.474600000000E+02  5.928445047158597E-03  2.181356329538537E-04
 8.474800000000E+02  5.946783185942594E-03  2.195137008991580E-04
 8.475000000000E+02  5.965234674364948E-03  2.209050135957073E-04
 8.475200000000E+02  5.983800629477560E-03  2.223097427977766E-04
 8.475400000000E+02  6.002482182251000E-03  2.237280630624729E-04
 8.475600000000E+02  6.021280477811613E-03  2.251601518051129E-04
 8.475800000000E+02  6.040196675682468E-03  2.266061893558725E-04
 8.476000000000E+02  6.059231950028914E-03  2.280663590177635E-04
 8.476200000000E+02  6.078387489909196E-03  2.295408471259524E-04
 8.476400000000E+02  6.097664499528963E-03  2.310298431084789E-04
 8.476600000000E+02  6.117064198501458E-03  2.325335395483860E-04
 8.476800000000E+02  6.136587822112057E-03  2.340521322473282E-04
 8.477000000000E+02  6.156236621588240E-03  2.355858202906697E-04
 8.477200000000E+02  6.176011864374484E-03  2.371348061141418E-04
 8.477400000000E+02  6.195914834412714E-03  2.386992955720735E-04
 8.477600000000E+02  6.215946832428074E-03  2.402794980072634E-04
 8.477800000000E+02  6.236109176220446E-03  2.418756263225196E-04
 8.478000000000E+02  6.256403200961439E-03  2.434878970539255E-04
 8.478200000000E+02  6.276830259497579E-03  2.451165304458725E-04
 8.478400000000E+02  6.297391722659260E-03  2.467617505279116E-04
 8.478600000000E+02  6.318088979576073E-03  2.484237851934782E-04
 8.478800000000E+02  6.338923437998196E-03  2.501028662805257E-04
 8.479000000000E+02  6.359896524624628E-03  2.517992296541550E-04
 8.479200000000E+02  6.381009685437694E-03  2.535131152912531E-04
 8.479400000000E+02  6.402264386044780E-03  2.552447673672385E-04
 8.479600000000E+02  6.423662112026599E-03  2.569944343449396E-04
 8.479800000000E+02  6.445204369292982E-03  2.587623690657003E-04
 8.480000000000E+02  6.466892684445846E-03  2.605488288427318E-04
 8.480200000000E+02  6.488728605149621E-03  2.623540755568322E-04
 8.480400000000E+02  6.510713700509691E-03  2.641783757544857E-04
 8.480600000000E+02  6.532849561458404E-03  2.660220007484512E-04
 8.480800000000E+02  6.555137801149473E-03  2.678852267208899E-04
 8.481000000000E+02  6.577580055360418E-03  2.697683348291211E-04
 8.481200000000E+02  6.600177982903860E-03  2.716716113140606E-04
 8.481400000000E+02  6.622933266047401E-03  2.735953476114570E-04
 8.481600000000E+02  6.645847610942387E-03  2.755398404659618E-04
 8.481800000000E+02  6.668922748062235E-03  2.775053920481638E-04
 8.482000000000E+02  6.692160432649853E-03  2.794923100746322E-04
 8.482200000000E+02  6.715562445174770E-03  2.815009079311050E-04
 8.482400000000E+02  6.739130591800702E-03  2.835315047988642E-04
 8.482600000000E+02  6.762866704862667E-03  2.855844257844448E-04
 8.482800000000E+02  6.786772643354976E-03  2.876600020527324E-04
 8.483000000000E+02  6.810850293429940E-03  2.897585709635925E-04
 8.483200000000E+02  6.835101568907627E-03  2.918804762121050E-04
 8.483400000000E+02  6.859528411796740E-03  2.940260679725341E-04
 8.483600000000E+02  6.884132792827387E-03  2.961957030461502E-04
 8.483800000000E+02  6.908916711995805E-03  2.983897450129948E-04
 8.484000000000E+02  6.933882199121036E-03  3.006085643877516E-04
 8.484200000000E+02  6.959031314414507E-03  3.028525387798101E-04
 8.484400000000E+02  6.984366149062502E-03  3.051220530576888E-04
 8.484600000000E+02  7.009888825821736E-03  3.074174995179165E-04
 8.484800000000E+02  7.035601499628767E-03  3.097392780585487E-04
 8.485000000000E+02  7.061506358223345E-03  3.120877963574346E-04
 8.485200000000E+02  7.087605622786102E-03  3.144634700554059E-04
 8.485400000000E+02  7.113901548591093E-03  3.168667229445352E-04
 8.485600000000E+02  7.140396425673571E-03  3.192979871616082E-04
 8.485800000000E+02  7.167092579513378E-03  3.217577033870304E-04
 8.486000000000E+02  7.193992371734237E-03  3.242463210492638E-04
 8.486200000000E+02  7.221098200819630E-03  3.267642985350417E-04
 8.486400000000E+02  7.248412502845843E-03  3.293121034055180E-04
