#Spectra: 1
Emin______Emax      -1.483413864938447E+01  2.516586135061554E+01
EminPole__EmaxPole  -4.750265030879191E+00  1.541361602383059E+01
dE________Gamma      4.000000000000000E-02  1.000000000000000E-01
Energy               Re[0]                  Im[0]                
-1.483413864938E+01  3.697427455469126E-03  1.272620462779389E-04
-1.479413864938E+01  4.137176774178195E-03  1.300547095184895E-04
-1.475413864938E+01  4.530975608653160E-03  1.326647175146330E-04
-1.471413864938E+01  4.866692982757459E-03  1.350387338604017E-04
-1.467413864938E+01  5.145946977281679E-03  1.371830590718652E-04
-1.463413864938E+01  5.376840247830706E-03  1.391322393390343E-04
-1.459413864938E+01  5.568771853223899E-03  1.409265932947061E-04
-1.455413864938E+01  5.730126726806077E-03  1.426021782881408E-04
-1.451413864938E+01  5.867664987475309E-03  1.441881169548126E-04
-1.447413864938E+01  5.986610706442711E-03  1.457069578630032E-04
-1.443413864938E+01  6.090939177590480E-03  1.471759013896594E-04
-1.439413864938E+01  6.183669348773606E-03  1.486080526158008E-04
-1.435413864938E+01  6.267104958753810E-03  1.500134556471259E-04
-1.431413864938E+01  6.343018502433933E-03  1.513998829680901E-04
-1.427413864938E+01  6.412787176710981E-03  1.527734187492254E-04
-1.423413864938E+01  6.477492202524184E-03  1.541388849352061E-04
-1.419413864938E+01  6.537991306095124E-03  1.555001521049796E-04
-1.415413864938E+01  6.594971838122806E-03  1.568603672235161E-04
-1.411413864938E+01  6.648989981437915E-03  1.582221216971728E-04
-1.407413864938E+01  6.700499940290656E-03  1.595875764542636E-04
-1.403413864938E+01  6.749875873461497E-03  1.609585559125100E-04
-1.399413864938E+01  6.797428531739873E-03  1.623366192503683E-04
-1.395413864938E+01  6.843417997397752E-03  1.637231149806954E-04
-1.391413864938E+01  6.888063528568787E-03  1.651192231296556E-04
-1.387413864938E+01  6.931551233835455E-03  1.665259881316232E-04
-1.383413864938E+01  6.974040105993226E-03  1.679443447079052E-04
-1.379413864938E+01  7.015666804129275E-03  1.693751383970030E-04
-1.375413864938E+01  7.056549472779808E-03  1.708191419734675E-04
-1.371413864938E+01  7.096790814288677E-03  1.722770686808689E-04
-1.367413864938E+01  7.136480577474002E-03  1.737495829771040E-04
-1.363413864938E+01  7.175697586698762E-03  1.752373093230716E-04
-1.359413864938E+01  7.214511406494882E-03  1.767408394217463E-04
-1.355413864938E+01  7.252983715245134E-03  1.782607382219975E-04
-1.351413864938E+01  7.291169445112164E-03  1.797975489316446E-04
-1.347413864938E+01  7.329117733016494E-03  1.813517972312572E-04
-1.343413864938E+01  7.366872717991261E-03  1.829239948396865E-04
-1.339413864938E+01  7.404474212946356E-03  1.845146425511210E-04
-1.335413864938E+01  7.441958273218393E-03  1.861242328392966E-04
-1.331413864938E+01  7.479357679870917E-03  1.877532521056641E-04
-1.327413864938E+01  7.516702352246574E-03  1.894021826335036E-04
-1.323413864938E+01  7.554019701537541E-03  1.910715042983457E-04
-1.319413864938E+01  7.591334934971226E-03  1.927616960757936E-04
-1.315413864938E+01  7.628671318473535E-03  1.944732373804406E-04
-1.311413864938E+01  7.666050404283533E-03  1.962066092636916E-04
-1.307413864938E+01  7.703492228870969E-03  1.979622954935089E-04
-1.303413864938E+01  7.741015485600529E-03  1.997407835352490E-04
-1.299413864938E+01  7.778637675847230E-03  2.015425654496314E-04
-1.295413864938E+01  7.816375241663467E-03  2.033681387213004E-04
-1.291413864938E+01  7.854243682602163E-03  2.052180070293723E-04
-1.287413864938E+01  7.892257658891864E-03  2.070926809696099E-04
-1.283413864938E+01  7.930431082821076E-03  2.089926787364594E-04
-1.279413864938E+01  7.968777199908622E-03  2.109185267719974E-04
-1.275413864938E+01  8.007308661202875E-03  2.128707603878700E-04
-1.271413864938E+01  8.046037587856852E-03  2.148499243654695E-04
-1.267413864938E+01  8.084975628961337E-03  2.168565735389403E-04
-1.263413864938E+01  8.124134013480834E-03  2.188912733650255E-04
-1.259413864938E+01  8.163523597019608E-03  2.209546004832758E-04
-1.255413864938E+01  8.203154904047065E-03  2.230471432697800E-04
-1.251413864938E+01  8.243038166126329E-03  2.251695023871987E-04
-1.247413864938E+01  8.283183356619829E-03  2.273222913336407E-04
-1.243413864938E+01  8.323600222283451E-03  2.295061369926543E-04
-1.239413864938E+01  8.364298312109421E-03  2.317216801864366E-04
-1.235413864938E+01  8.405287003731986E-03  2.339695762341809E-04
-1.231413864938E+01  8.446575527672716E-03  2.362504955173590E-04
-1.227413864938E+01  8.488172989667734E-03  2.385651240536048E-04
-1.223413864938E+01  8.530088391291425E-03  2.409141640808088E-04
-1.219413864938E+01  8.572330649064512E-03  2.432983346529164E-04
-1.215413864938E+01  8.614908612215458E-03  2.457183722489023E-04
-1.211413864938E+01  8.657831079242414E-03  2.481750313963278E-04
-1.207413864938E+01  8.701106813408428E-03  2.506690853108622E-04
-1.203413864938E+01  8.744744557287987E-03  2.532013265531332E-04
-1.199413864938E+01  8.788753046469403E-03  2.557725677042522E-04
-1.195413864938E+01  8.833141022508310E-03  2.583836420613622E-04
-1.191413864938E+01  8.877917245216489E-03  2.610354043545584E-04
-1.187413864938E+01  8.923090504362213E-03  2.637287314865609E-04
-1.183413864938E+01  8.968669630851736E-03  2.664645232965007E-04
-1.179413864938E+01  9.014663507453525E-03  2.692437033492567E-04
-1.175413864938E+01  9.061081079122337E-03  2.720672197517776E-04
-1.171413864938E+01  9.107931362974452E-03  2.749360459978698E-04
-1.167413864938E+01  9.155223457962000E-03  2.778511818429927E-04
-1.163413864938E+01  9.202966554288079E-03  2.808136542106290E-04
-1.159413864938E+01  9.251169942603990E-03  2.838245181318821E-04
-1.155413864938E+01  9.299843023024487E-03  2.868848577199815E-04
-1.151413864938E+01  9.348995313994886E-03  2.899957871814788E-04
-1.147413864938E+01  9.398636461042597E-03  2.931584518659702E-04
-1.143413864938E+01  9.448776245441269E-03  2.963740293562627E-04
-1.139413864938E+01  9.499424592816831E-03  2.996437306009996E-04
-1.135413864938E+01  9.550591581720355E-03  3.029688010918434E-04
-1.131413864938E+01  9.602287452193421E-03  3.063505220874073E-04
-1.127413864938E+01  9.654522614349039E-03  3.097902118862537E-04
-1.123413864938E+01  9.707307656991146E-03  3.132892271513818E-04
-1.119413864938E+01  9.760653356293961E-03  3.168489642887318E-04
-1.115413864938E+01  9.814570684562865E-03  3.204708608823767E-04
-1.111413864938E+01  9.869070819096524E-03  3.241563971892528E-04
-1.107413864938E+01  9.924165151170847E-03  3.279070976963160E-04
-1.103413864938E+01  9.979865295164061E-03  3.317245327433056E-04
-1.099413864938E+01  1.003618309784225E-02  3.356103202143495E-04
-1.095413864938E+01  1.009313064782472E-02  3.395661273019068E-04
-1.091413864938E+01  1.015072028524820E-02  3.435936723466666E-04
-1.087413864938E+01  1.020896461164923E-02  3.476947267572745E-04
-1.083413864938E+01  1.026787650008371E-02  3.518711170139518E-04
-1.079413864938E+01  1.032746910550327E-02  3.561247267602918E-04
-1.075413864938E+01  1.038775587540830E-02  3.604574989877861E-04
-1.071413864938E+01  1.044875056079759E-02  3.648714383178798E-04
-1.067413864938E+01  1.051046722743472E-02  3.693686133866189E-04
-1.063413864938E+01  1.057292026745321E-02  3.739511593372902E-04
-1.059413864938E+01  1.063612441132055E-02  3.786212804267130E-04
-1.055413864938E+01  1.070009474018527E-02  3.833812527512313E-04
-1.051413864938E+01  1.076484669862738E-02  3.882334270987755E-04
-1.047413864938E+01  1.083039610783910E-02  3.931802319337733E-04
-1.043413864938E+01  1.089675917925788E-02  3.982241765220713E-04
-1.039413864938E+01  1.096395252867851E-02  4.033678542035010E-04
-1.035413864938E+01  1.103199319087124E-02  4.086139458201506E-04
-1.031413864938E+01  1.110089863473321E-02  4.139652233089406E-04
-1.027413864938E+01  1.117068677900247E-02  4.194245534676049E-04
-1.023413864938E+01  1.124137600856516E-02  4.249949019037804E-04
-1.019413864938E+01  1.131298519138758E-02  4.306793371774849E-04
-1.015413864938E+01  1.138553369610673E-02  4.364810351479652E-04
-1.011413864938E+01  1.145904141031423E-02  4.424032835365468E-04
-1.007413864938E+01  1.153352875957093E-02  4.484494867179242E-04
-1.003413864938E+01  1.160901672719061E-02  4.546231707530893E-04
-9.994138649384E+00  1.168552687483397E-02  4.609279886780064E-04
-9.954138649384E+00  1.176308136395581E-02  4.673677260630414E-04
-9.914138649384E+00  1.184170297815115E-02  4.739463068591688E-04
-9.874138649384E+00  1.192141514644809E-02  4.806677995480518E-04
-9.834138649384E+00  1.200224196759801E-02  4.875364236142545E-04
-9.794138649384E+00  1.208420823541715E-02  4.945565563590740E-04
-9.754138649384E+00  1.216733946523578E-02  5.017327400768260E-04
-9.714138649384E+00  1.225166192151536E-02  5.090696896158764E-04
-9.674138649384E+00  1.233720264669722E-02  5.165723003482447E-04
-9.634138649384E+00  1.242398949134976E-02  5.242456565732715E-04
-9.594138649384E+00  1.251205114568648E-02  5.320950403827058E-04
-9.554138649384E+00  1.260141717252972E-02  5.401259410164461E-04
-9.514138649384E+00  1.269211804180142E-02  5.483440647403274E-04
-9.474138649384E+00  1.278418516662604E-02  5.567553452796467E-04
-9.434138649384E+00  1.287765094113660E-02  5.653659548444762E-04
-9.394138649384E+00  1.297254878008075E-02  5.741823157856455E-04
-9.354138649384E+00  1.306891316032962E-02  5.832111129230147E-04
-9.314138649384E+00  1.316677966439925E-02  5.924593065908756E-04
-9.274138649384E+00  1.326618502610093E-02  6.019341464487003E-04
-9.234138649384E+00  1.336716717844563E-02  6.116431861090860E-04
-9.194138649384E+00  1.346976530393430E-02  6.215942986388581E-04
-9.154138649384E+00  1.357401988737678E-02  6.317956929935020E-04
-9.114138649384E+00  1.367997277138951E-02  6.422559314499171E-04
-9.074138649384E+00  1.378766721473462E-02  6.529839481075950E-04
-9.034138649384E+00  1.389714795367237E-02  6.639890685339208E-04
-8.994138649384E+00  1.400846126651223E-02  6.752810306353818E-04
-8.954138649384E+00  1.412165504156001E-02  6.868700068431305E-04
-8.914138649384E+00  1.423677884867330E-02  6.987666277086588E-04
-8.874138649384E+00  1.435388401465167E-02  7.109820070131154E-04
-8.834138649384E+00  1.447302370270520E-02  7.235277685026700E-04
-8.794138649384E+00  1.459425299626268E-02  7.364160743716157E-04
-8.754138649384E+00  1.471762898739910E-02  7.496596556253920E-04
-8.714138649384E+00  1.484321087018431E-02  7.632718444670324E-04
-8.674138649384E+00  1.497106003927579E-02  7.772666088630206E-04
-8.634138649384E+00  1.510124019410450E-02  7.916585894581867E-04
-8.594138649384E+00  1.523381744902731E-02  8.064631390243888E-04
-8.554138649384E+00  1.536886044985159E-02  8.216963646441270E-04
-8.514138649384E+00  1.550644049716459E-02  8.373751728485479E-04
-8.474138649384E+00  1.564663167693895E-02  8.535173179492379E-04
-8.434138649384E+00  1.578951099892005E-02  8.701414538253550E-04
-8.394138649384E+00  1.593515854334176E-02  8.872671894519821E-04
-8.354138649384E+00  1.608365761656325E-02  9.049151484825711E-04
-8.314138649384E+00  1.623509491626567E-02  9.231070332280648E-04
-8.274138649384E+00  1.638956070690169E-02  9.418656934083462E-04
-8.234138649384E+00  1.654714900614818E-02  9.612152000880876E-04
-8.194138649384E+00  1.670795778317611E-02  9.811809252497688E-04
-8.154138649384E+00  1.687208916962042E-02  1.001789627501491E-03
-8.114138649384E+00  1.703964968420839E-02  1.023069544467409E-03
-8.074138649384E+00  1.721075047209021E-02  1.045050492464178E-03
-8.034138649384E+00  1.738550756000429E-02  1.067763974129140E-03
-7.994138649384E+00  1.756404212851325E-02  1.091243294734916E-03
-7.954138649384E+00  1.774648080265594E-02  1.115523688002865E-03
-7.914138649384E+00  1.793295596248272E-02  1.140642452314022E-03
-7.874138649384E+00  1.812360607507781E-02  1.166639098313485E-03
-7.834138649384E+00  1.831857604981934E-02  1.193555509012556E-03
-7.794138649384E+00  1.851801761879232E-02  1.221436113615299E-03
-7.754138649384E+00  1.872208974445289E-02  1.250328076433268E-03
-7.714138649384E+00  1.893095905684200E-02  1.280281502406765E-03
-7.674138649384E+00  1.914480032287110E-02  1.311349660925261E-03
-7.634138649384E+00  1.936379695044807E-02  1.343589229836305E-03
-7.594138649384E+00  1.958814153049017E-02  1.377060561754926E-03
-7.554138649384E+00  1.981803642017273E-02  1.411827975037475E-03
-7.514138649384E+00  2.005369437110698E-02  1.447960072069835E-03
-7.474138649384E+00  2.029533920651704E-02  1.485530087844820E-03
-7.434138649384E+00  2.054320655191282E-02  1.524616272173415E-03
-7.394138649384E+00  2.079754462422741E-02  1.565302309295977E-03
-7.354138649384E+00  2.105861508492005E-02  1.607677779141105E-03
-7.314138649384E+00  2.132669396313679E-02  1.651838665030487E-03
-7.274138649384E+00  2.160207265569020E-02  1.697887913259680E-03
-7.234138649384E+00  2.188505901136690E-02  1.745936050709352E-03
-7.194138649384E+00  2.217597850791160E-02  1.796101867475908E-03
-7.154138649384E+00  2.247517553098565E-02  1.848513172471843E-03
-7.114138649384E+00  2.278301476546751E-02  1.903307631056908E-03
-7.074138649384E+00  2.309988271066468E-02  1.960633695046986E-03
-7.034138649384E+00  2.342618933237388E-02  2.020651636939188E-03
-6.994138649384E+00  2.376236986626801E-02  2.083534701925843E-03
-6.954138649384E+00  2.410888678883580E-02  2.149470393290950E-03
-6.914138649384E+00  2.446623197408778E-02  2.218661909143042E-03
-6.874138649384E+00  2.483492905649543E-02  2.291329751202175E-03
-6.834138649384E+00  2.521553602319611E-02  2.367713529602607E-03
-6.794138649384E+00  2.560864806142080E-02  2.448073991490196E-03
-6.754138649384E+00  2.601490069043203E-02  2.532695305697440E-03
-6.714138649384E+00  2.643497321106904E-02  2.621887641108110E-03
-6.674138649384E+00  2.686959251034195E-02  2.715990082645124E-03
-6.634138649384E+00  2.731953726349665E-02  2.815373936338201E-03
-6.594138649384E+00  2.778564258166371E-02  2.920446483904914E-03
-6.554138649384E+00  2.826880515973667E-02  3.031655258025730E-03
-6.514138649384E+00  2.876998898659770E-02  3.149492922399866E-03
-6.474138649384E+00  2.929023168838837E-02  3.274502856218761E-03
-6.434138649384E+00  2.983065158534583E-02  3.407285561493461E-03
-6.394138649384E+00  3.039245555398499E-02  3.548506034480278E-03
-6.354138649384E+00  3.097694779928192E-02  3.698902270219403E-03
-6.314138649384E+00  3.158553965622598E-02  3.859295103141936E-03
-6.274138649384E+00  3.221976055685613E-02  4.030599628341873E-03
-6.234138649384E+00  3.288127031789432E-02  4.213838499402916E-03
-6.194138649384E+00  3.357187292551377E-02  4.410157462113381E-03
-6.154138649384E+00  3.429353201773016E-02  4.620843562206834E-03
-6.114138649384E+00  3.504838829138194E-02  4.847346563581284E-03
-6.074138649384E+00  3.583877908941537E-02  5.091304236659171E-03
-6.034138649384E+00  3.666726045462119E-02  5.354572331674535E-03
-5.994138649384E+00  3.753663196686433E-02  5.639260247910752E-03
-5.954138649384E+00  3.844996471003045E-02  5.947773659368923E-03
-5.914138649384E+00  3.941063273870321E-02  6.282865676036077E-03
-5.874138649384E+00  4.042234842682932E-02  6.647698529115709E-03
-5.834138649384E+00  4.148920207146874E-02  7.045918296662927E-03
-5.794138649384E+00  4.261570607826592E-02  7.481745871054856E-03
-5.754138649384E+00  4.380684394634089E-02  7.960088262724516E-03
-5.714138649384E+00  4.506812405889642E-02  8.486675504458301E-03
-5.674138649384E+00  4.640563790867798E-02  9.068229960224621E-03
-5.634138649384E+00  4.782612174412148E-02  9.712676877286015E-03
-5.594138649384E+00  4.933701955287924E-02  1.042940771870723E-02
-5.554138649384E+00  5.094654354950860E-02  1.122961140003468E-02
-5.514138649384E+00  5.266372549449906E-02  1.212669332427167E-02
-5.474138649384E+00  5.449844758328237E-02  1.313680844120473E-02
-5.434138649384E+00  5.646143423830127E-02  1.427954291009406E-02
-5.394138649384E+00  5.856417417641421E-02  1.557878982138947E-02
-5.354138649384E+00  6.081872277058568E-02  1.706387824737214E-02
-5.314138649384E+00  6.323730334598890E-02  1.877103161811137E-02
-5.274138649384E+00  6.583157511409626E-02  2.074524975270060E-02
-5.234138649384E+00  6.861135286278064E-02  2.304272432046421E-02
-5.194138649384E+00  7.158243041317416E-02  2.573389818321322E-02
-5.154138649384E+00  7.474294846105402E-02  2.890723680252957E-02
-5.114138649384E+00  7.807742207988834E-02  3.267363201288323E-02
-5.074138649384E+00  8.154707420337716E-02  3.717097297859218E-02
-5.034138649384E+00  8.507453949802386E-02  4.256753645934235E-02
-4.994138649384E+00  8.852056112529069E-02  4.906101377704992E-02
-4.954138649384E+00  9.165087383003484E-02  5.686659293234077E-02
-4.914138649384E+00  9.409528226283112E-02  6.618235812214317E-02
-4.874138649384E+00  9.531215142128448E-02  7.711576007625183E-02
-4.834138649384E+00  9.459352538937435E-02  8.956079205258476E-02
-4.794138649384E+00  9.116869189280094E-02  1.030511240019901E-01
-4.754138649384E+00  8.444290992504189E-02  1.166862079486038E-01
-4.714138649384E+00  7.428979559728516E-02  1.292668111891380E-01
-4.674138649384E+00  6.117301713233153E-02  1.396476673359290E-01
-4.634138649384E+00  4.595135081476396E-02  1.470566750751006E-01
-4.594138649384E+00  2.956785697473945E-02  1.511089238338199E-01
-4.554138649384E+00  1.298060740643552E-02  1.516434871585144E-01
-4.514138649384E+00 -2.724055099661767E-03  1.487869872636083E-01
-4.474138649384E+00 -1.651365473743817E-02  1.432191974795435E-01
-4.434138649384E+00 -2.792793503836833E-02  1.360923752681359E-01
-4.394138649384E+00 -3.731061624983237E-02  1.284332182316378E-01
-4.354138649384E+00 -4.539572743669287E-02  1.205846405379959E-01
-4.314138649384E+00 -5.261586996286414E-02  1.122334167708306E-01
-4.274138649384E+00 -5.875146348597477E-02  1.029771454067097E-01
-4.234138649384E+00 -6.319954979919533E-02  9.288344263009442E-02
-4.194138649384E+00 -6.553268278164438E-02  8.254587684242101E-02
-4.154138649384E+00 -6.579444084745543E-02  7.271620843681650E-02
-4.114138649384E+00 -6.439427456589601E-02  6.395271084459886E-02
-4.074138649384E+00 -6.185895943075580E-02  5.651575956298546E-02
-4.034138649384E+00 -5.866161841892898E-02  5.043783605448200E-02
-3.994138649384E+00 -5.516570067728873E-02  4.563125908597945E-02
-3.954138649384E+00 -5.163724019685585E-02  4.196581608622874E-02
-3.914138649384E+00 -4.828080374210301E-02  3.930523182537105E-02
-3.874138649384E+00 -4.527456436559762E-02  3.750985616092274E-02
-3.834138649384E+00 -4.278995324964112E-02  3.641397025317702E-02
-3.794138649384E+00 -4.098063032652088E-02  3.578884354055438E-02
-3.754138649384E+00 -3.992668334101317E-02  3.531852225068557E-02
-3.714138649384E+00 -3.954786166903900E-02  3.463648989207408E-02
-3.674138649384E+00 -3.955972669698475E-02  3.345036944138238E-02
-3.634138649384E+00 -3.955992905203091E-02  3.168463291742224E-02
-3.594138649384E+00 -3.921120506404797E-02  2.950552102341469E-02
-3.554138649384E+00 -3.836721318430193E-02  2.719858707331541E-02
-3.514138649384E+00 -3.705971827514328E-02  2.501975221301655E-02
-3.474138649384E+00 -3.540969917259386E-02  2.312545873673036E-02
-3.434138649384E+00 -3.354947835845605E-02  2.157986753117075E-02
-3.394138649384E+00 -3.158591626767013E-02  2.039145249314345E-02
-3.354138649384E+00 -2.959553931512923E-02  1.954678509827852E-02
-3.314138649384E+00 -2.763584226707315E-02  1.903025856707292E-02
-3.274138649384E+00 -2.576055460014130E-02  1.882867603978789E-02
-3.234138649384E+00 -2.403085464848644E-02  1.892409826642060E-02
-3.194138649384E+00 -2.251780891252342E-02  1.927909296789267E-02
-3.154138649384E+00 -2.129084281783684E-02  1.981908276317764E-02
-3.114138649384E+00 -2.038682558042003E-02  2.042372257319123E-02
-3.074138649384E+00 -1.976783822333130E-02  2.094930167299987E-02
-3.034138649384E+00 -1.930437184765023E-02  2.129205058919813E-02
-2.994138649384E+00 -1.882338606266306E-02  2.145401276026231E-02
-2.954138649384E+00 -1.819883577493104E-02  2.154645818459510E-02
