#Spectra: 1
Emin______Emax       8.430000000000000E+02  8.830000000000000E+02
EminPole__EmaxPole   8.532927862235119E+02  8.851198863745269E+02
dE________Gamma      2.000000000000000E-02  1.000000000000000E-01
Energy               Re[0]                  Im[0]                
 8.430000000000E+02  1.886401836865331E-03  6.066396570053116E-05
 8.430200000000E+02  2.005841232617405E-03  6.133294654460820E-05
 8.430400000000E+02  2.121788213166242E-03  6.198997700975444E-05
 8.430600000000E+02  2.232270889520569E-03  6.262722193616886E-05
 8.430800000000E+02  2.335907746214119E-03  6.323917383883891E-05
 8.431000000000E+02  2.431928350500091E-03  6.382273924295037E-05
 8.431200000000E+02  2.520091954179998E-03  6.437692014424631E-05
 8.431400000000E+02  2.600556378150496E-03  6.490229768308728E-05
 8.431600000000E+02  2.673741836745892E-03  6.540049481931190E-05
 8.431800000000E+02  2.740215649878380E-03  6.587372089884638E-05
 8.432000000000E+02  2.800606834666577E-03  6.632443392654741E-05
 8.432200000000E+02  2.855549173525633E-03  6.675511519090763E-05
 8.432400000000E+02  2.905646954999120E-03  6.716813342027239E-05
 8.432600000000E+02  2.951456875926337E-03  6.756567280210775E-05
 8.432800000000E+02  2.993480556952890E-03  6.794970297245703E-05
 8.433000000000E+02  3.032163537423339E-03  6.832197465259097E-05
 8.433200000000E+02  3.067897916520493E-03  6.868402974061785E-05
 8.433400000000E+02  3.101026814623529E-03  6.903721864071107E-05
 8.433600000000E+02  3.131849538941512E-03  6.938272041636469E-05
 8.433800000000E+02  3.160626808699551E-03  6.972156321538841E-05
 8.434000000000E+02  3.187585694065275E-03  7.005464359547000E-05
 8.434200000000E+02  3.212924105339273E-03  7.038274409993409E-05
 8.434400000000E+02  3.236814775746780E-03  7.070654885586554E-05
 8.434600000000E+02  3.259408740639328E-03  7.102665720224184E-05
 8.434800000000E+02  3.280838346560219E-03  7.134359547730281E-05
 8.435000000000E+02  3.301219837234459E-03  7.165782714856887E-05
 8.435200000000E+02  3.320655567443935E-03  7.196976148472314E-05
 8.435400000000E+02  3.339235894400610E-03  7.227976096357703E-05
 8.435600000000E+02  3.357040792287806E-03  7.258814759503483E-05
 8.435800000000E+02  3.374141230636918E-03  7.289520831845991E-05
 8.436000000000E+02  3.390600352002725E-03  7.320119961346510E-05
 8.436200000000E+02  3.406474479440711E-03  7.350635144374121E-05
 8.436400000000E+02  3.421813979790581E-03  7.381087063589233E-05
 8.436600000000E+02  3.436664004803386E-03  7.411494377968894E-05
 8.436800000000E+02  3.451065128720104E-03  7.441873972271047E-05
 8.437000000000E+02  3.465053897979643E-03  7.472241172084975E-05
 8.437200000000E+02  3.478663306253241E-03  7.502609929640870E-05
 8.437400000000E+02  3.491923205910775E-03  7.532992984734072E-05
 8.437600000000E+02  3.504860665270842E-03  7.563402004427390E-05
 8.437800000000E+02  3.517500279514715E-03  7.593847704621762E-05
 8.438000000000E+02  3.529864441915276E-03  7.624339956100220E-05
 8.438200000000E+02  3.541973581001115E-03  7.654887877247758E-05
 8.438400000000E+02  3.553846368414915E-03  7.685499915311337E-05
 8.438600000000E+02  3.565499901502948E-03  7.716183917781261E-05
 8.438800000000E+02  3.576949864066887E-03  7.746947195236941E-05
 8.439000000000E+02  3.588210668200468E-03  7.777796576802302E-05
 8.439200000000E+02  3.599295579705784E-03  7.808738459186642E-05
 8.439400000000E+02  3.610216829222840E-03  7.839778850146348E-05
 8.439600000000E+02  3.620985710902188E-03  7.870923407083527E-05
 8.439800000000E+02  3.631612670191934E-03  7.902177471396318E-05
 8.440000000000E+02  3.642107382092643E-03  7.933546099110121E-05
 8.440200000000E+02  3.652478821047813E-03  7.965034088246787E-05
 8.440400000000E+02  3.662735323479470E-03  7.996646003326144E-05
 8.440600000000E+02  3.672884643844030E-03  8.028386197342373E-05
 8.440800000000E+02  3.682934004968022E-03  8.060258831511778E-05
 8.441000000000E+02  3.692890143324682E-03  8.092267893050636E-05
 8.441200000000E+02  3.702759349827956E-03  8.124417211208050E-05
 8.441400000000E+02  3.712547506647076E-03  8.156710471750706E-05
 8.441600000000E+02  3.722260120482568E-03  8.189151230071538E-05
 8.441800000000E+02  3.731902352690037E-03  8.221742923072985E-05
 8.442000000000E+02  3.741479046591056E-03  8.254488879958028E-05
 8.442200000000E+02  3.750994752270194E-03  8.287392332044975E-05
 8.442400000000E+02  3.760453749121445E-03  8.320456421709081E-05
 8.442600000000E+02  3.769860066376529E-03  8.353684210541796E-05
 8.442800000000E+02  3.779217501821330E-03  8.387078686808241E-05
 8.443000000000E+02  3.788529638882599E-03  8.420642772273349E-05
 8.443200000000E+02  3.797799862246779E-03  8.454379328460868E-05
 8.443400000000E+02  3.807031372155066E-03  8.488291162400405E-05
 8.443600000000E+02  3.816227197502795E-03  8.522381031913034E-05
 8.443800000000E+02  3.825390207857579E-03  8.556651650480140E-05
 8.444000000000E+02  3.834523124497922E-03  8.591105691734806E-05
 8.444200000000E+02  3.843628530564107E-03  8.625745793611969E-05
 8.444400000000E+02  3.852708880402702E-03  8.660574562188653E-05
 8.444600000000E+02  3.861766508178263E-03  8.695594575243459E-05
 8.444800000000E+02  3.870803635818096E-03  8.730808385560478E-05
 8.445000000000E+02  3.879822380349153E-03  8.766218524001082E-05
 8.445200000000E+02  3.888824760680544E-03  8.801827502364284E-05
 8.445400000000E+02  3.897812703879794E-03  8.837637816054370E-05
 8.445600000000E+02  3.906788050986100E-03  8.873651946572988E-05
 8.445800000000E+02  3.915752562400013E-03  8.909872363850633E-05
 8.446000000000E+02  3.924707922884850E-03  8.946301528431908E-05
 8.446200000000E+02  3.933655746212209E-03  8.982941893526380E-05
 8.446400000000E+02  3.942597579480723E-03  9.019795906937354E-05
 8.446600000000E+02  3.951534907134247E-03  9.056866012878207E-05
 8.446800000000E+02  3.960469154704240E-03  9.094154653686012E-05
 8.447000000000E+02  3.969401692297361E-03  9.131664271441007E-05
 8.447200000000E+02  3.978333837849100E-03  9.169397309499670E-05
 8.447400000000E+02  3.987266860160961E-03  9.207356213948578E-05
 8.447600000000E+02  3.996201981738348E-03  9.245543434985676E-05
 8.447800000000E+02  4.005140381443949E-03  9.283961428234614E-05
 8.448000000000E+02  4.014083196980585E-03  9.322612655998050E-05
 8.448200000000E+02  4.023031527216588E-03  9.361499588454666E-05
 8.448400000000E+02  4.031986434364769E-03  9.400624704804366E-05
 8.448600000000E+02  4.040948946025896E-03  9.439990494366262E-05
 8.448800000000E+02  4.049920057106950E-03  9.479599457633073E-05
 8.449000000000E+02  4.058900731622302E-03  9.519454107285358E-05
 8.449200000000E+02  4.067891904386747E-03  9.559556969169693E-05
 8.449400000000E+02  4.076894482607770E-03  9.599910583242303E-05
 8.449600000000E+02  4.085909347384205E-03  9.640517504482951E-05
 8.449800000000E+02  4.094937355117351E-03  9.681380303779717E-05
 8.450000000000E+02  4.103979338841261E-03  9.722501568788683E-05
 8.450200000000E+02  4.113036109476827E-03  9.763883904769671E-05
 8.450400000000E+02  4.122108457015489E-03  9.805529935400751E-05
 8.450600000000E+02  4.131197151636938E-03  9.847442303572893E-05
 8.450800000000E+02  4.140302944765076E-03  9.889623672167215E-05
 8.451000000000E+02  4.149426570066542E-03  9.932076724816262E-05
 8.451200000000E+02  4.158568744395297E-03  9.974804166649981E-05
 8.451400000000E+02  4.167730168687095E-03  1.001780872502967E-04
 8.451600000000E+02  4.176911528806337E-03  1.006109315026968E-04
 8.451800000000E+02  4.186113496349322E-03  1.010466021634842E-04
 8.452000000000E+02  4.195336729405646E-03  1.014851272161096E-04
 8.452200000000E+02  4.204581873281107E-03  1.019265348946283E-04
 8.452400000000E+02  4.213849561184075E-03  1.023708536905695E-04
 8.452600000000E+02  4.223140414877666E-03  1.028181123597470E-04
 8.452800000000E+02  4.232455045300025E-03  1.032683399290165E-04
 8.453000000000E+02  4.241794053154212E-03  1.037215657029938E-04
 8.453200000000E+02  4.251158029469921E-03  1.041778192707350E-04
 8.453400000000E+02  4.260547556138587E-03  1.046371305123933E-04
 8.453600000000E+02  4.269963206423466E-03  1.050995296058600E-04
 8.453800000000E+02  4.279405545445912E-03  1.055650470333875E-04
 8.454000000000E+02  4.288875130649706E-03  1.060337135882168E-04
 8.454200000000E+02  4.298372512244335E-03  1.065055603812006E-04
 8.454400000000E+02  4.307898233628784E-03  1.069806188474376E-04
 8.454600000000E+02  4.317452831796467E-03  1.074589207529219E-04
 8.454800000000E+02  4.327036837722838E-03  1.079404982012132E-04
 8.455000000000E+02  4.336650776736542E-03  1.084253836401296E-04
 8.455200000000E+02  4.346295168874913E-03  1.089136098684781E-04
 8.455400000000E+02  4.355970529224679E-03  1.094052100428135E-04
 8.455600000000E+02  4.365677368249105E-03  1.099002176842467E-04
 8.455800000000E+02  4.375416192101611E-03  1.103986666852934E-04
 8.456000000000E+02  4.385187502927566E-03  1.109005913167785E-04
 8.456200000000E+02  4.394991799153774E-03  1.114060262347918E-04
 8.456400000000E+02  4.404829575767554E-03  1.119150064877097E-04
 8.456600000000E+02  4.414701324584791E-03  1.124275675232736E-04
 8.456800000000E+02  4.424607534508652E-03  1.129437451957451E-04
 8.457000000000E+02  4.434548691778682E-03  1.134635757731300E-04
 8.457200000000E+02  4.444525280211092E-03  1.139870959444804E-04
 8.457400000000E+02  4.454537781430901E-03  1.145143428272780E-04
 8.457600000000E+02  4.464586675096048E-03  1.150453539749043E-04
 8.457800000000E+02  4.474672439114149E-03  1.155801673841987E-04
 8.458000000000E+02  4.484795549852079E-03  1.161188215031097E-04
 8.458200000000E+02  4.494956482339091E-03  1.166613552384457E-04
 8.458400000000E+02  4.505155710463463E-03  1.172078079637248E-04
 8.458600000000E+02  4.515393707163392E-03  1.177582195271319E-04
 8.458800000000E+02  4.525670944612047E-03  1.183126302595812E-04
 8.459000000000E+02  4.535987894397359E-03  1.188710809828971E-04
 8.459200000000E+02  4.546345027697058E-03  1.194336130181077E-04
 8.459400000000E+02  4.556742815448520E-03  1.200002681938607E-04
 8.459600000000E+02  4.567181728514366E-03  1.205710888549634E-04
 8.459800000000E+02  4.577662237844052E-03  1.211461178710521E-04
 8.460000000000E+02  4.588184814630981E-03  1.217253986453938E-04
 8.460200000000E+02  4.598749930466267E-03  1.223089751238246E-04
 8.460400000000E+02  4.609358057488638E-03  1.228968918038275E-04
 8.460600000000E+02  4.620009668531409E-03  1.234891937437570E-04
 8.460800000000E+02  4.630705237265772E-03  1.240859265722107E-04
 8.461000000000E+02  4.641445238341558E-03  1.246871364975544E-04
 8.461200000000E+02  4.652230147524990E-03  1.252928703176046E-04
 8.461400000000E+02  4.663060441834048E-03  1.259031754294716E-04
 8.461600000000E+02  4.673936599671034E-03  1.265180998395687E-04
 8.461800000000E+02  4.684859100953148E-03  1.271376921737914E-04
 8.462000000000E+02  4.695828427240827E-03  1.277620016878720E-04
 8.462200000000E+02  4.706845061864101E-03  1.283910782779102E-04
 8.462400000000E+02  4.717909490046981E-03  1.290249724910885E-04
 8.462600000000E+02  4.729022199030291E-03  1.296637355365809E-04
 8.462800000000E+02  4.740183678192741E-03  1.303074192966435E-04
 8.463000000000E+02  4.751394419170548E-03  1.309560763379159E-04
 8.463200000000E+02  4.762654915975835E-03  1.316097599229143E-04
 8.463400000000E+02  4.773965665113557E-03  1.322685240217356E-04
 8.463600000000E+02  4.785327165697433E-03  1.329324233239811E-04
 8.463800000000E+02  4.796739919564703E-03  1.336015132508862E-04
 8.464000000000E+02  4.808204431390181E-03  1.342758499676818E-04
 8.464200000000E+02  4.819721208799079E-03  1.349554903961818E-04
 8.464400000000E+02  4.831290762479496E-03  1.356404922276070E-04
 8.464600000000E+02  4.842913606294002E-03  1.363309139356456E-04
 8.464800000000E+02  4.854590257390715E-03  1.370268147897598E-04
 8.465000000000E+02  4.866321236313811E-03  1.377282548687462E-04
 8.465200000000E+02  4.878107067113811E-03  1.384352950745526E-04
 8.465400000000E+02  4.889948277457331E-03  1.391479971463604E-04
 8.465600000000E+02  4.901845398736763E-03  1.398664236749329E-04
 8.465800000000E+02  4.913798966179750E-03  1.405906381172449E-04
 8.466000000000E+02  4.925809518958459E-03  1.413207048113913E-04
 8.466200000000E+02  4.937877600298963E-03  1.420566889917933E-04
 8.466400000000E+02  4.950003757590658E-03  1.427986568046881E-04
 8.466600000000E+02  4.962188542495694E-03  1.435466753239398E-04
 8.466800000000E+02  4.974432511058794E-03  1.443008125671483E-04
 8.467000000000E+02  4.986736223817069E-03  1.450611375120829E-04
 8.467200000000E+02  4.999100245910487E-03  1.458277201134376E-04
 8.467400000000E+02  5.011525147192359E-03  1.466006313199313E-04
 8.467600000000E+02  5.024011502340610E-03  1.473799430917422E-04
 8.467800000000E+02  5.036559890969347E-03  1.481657284182877E-04
 8.468000000000E+02  5.049170897741147E-03  1.489580613363784E-04
 8.468200000000E+02  5.061845112479850E-03  1.497570169487264E-04
 8.468400000000E+02  5.074583130284166E-03  1.505626714428382E-04
 8.468600000000E+02  5.087385551642035E-03  1.513751021102893E-04
 8.468800000000E+02  5.100252982545730E-03  1.521943873663981E-04
 8.469000000000E+02  5.113186034607899E-03  1.530206067702941E-04
 8.469200000000E+02  5.126185325178522E-03  1.538538410454229E-04
 8.469400000000E+02  5.139251477463008E-03  1.546941721004445E-04
 8.469600000000E+02  5.152385120641000E-03  1.555416830505982E-04
 8.469800000000E+02  5.165586889986778E-03  1.563964582394912E-04
 8.470000000000E+02  5.178857426990336E-03  1.572585832613547E-04
 8.470200000000E+02  5.192197379480184E-03  1.581281449837641E-04
 8.470400000000E+02  5.205607401747050E-03  1.590052315708409E-04
 8.470600000000E+02  5.219088154669110E-03  1.598899325069443E-04
 8.470800000000E+02  5.232640305838628E-03  1.607823386208688E-04
 8.471000000000E+02  5.246264529690019E-03  1.616825421105515E-04
 8.471200000000E+02  5.259961507629604E-03  1.625906365683208E-04
 8.471400000000E+02  5.273731928166478E-03  1.635067170066732E-04
 8.471600000000E+02  5.287576487045820E-03  1.644308798846182E-04
 8.471800000000E+02  5.301495887383133E-03  1.653632231345816E-04
 8.472000000000E+02  5.315490839800661E-03  1.663038461899034E-04
 8.472200000000E+02  5.329562062565666E-03  1.672528500129282E-04
 8.472400000000E+02  5.343710281730384E-03  1.682103371237126E-04
 8.472600000000E+02  5.357936231274193E-03  1.691764116293596E-04
 8.472800000000E+02  5.372240653247498E-03  1.701511792540017E-04
 8.473000000000E+02  5.386624297918039E-03  1.711347473694457E-04
 8.473200000000E+02  5.401087923919154E-03  1.721272250264951E-04
 8.473400000000E+02  5.415632298400291E-03  1.731287229869702E-04
 8.473600000000E+02  5.430258197179825E-03  1.741393537564434E-04
 8.473800000000E+02  5.444966404900255E-03  1.751592316177070E-04
 8.474000000000E+02  5.459757715185789E-03  1.761884726649972E-04
 8.474200000000E+02  5.474632930802621E-03  1.772271948389775E-04
 8.474400000000E+02  5.489592863821273E-03  1.782755179625327E-04
 8.474600000000E+02  5.504638335782247E-03  1.793335637773596E-04
 8.474800000000E+02  5.519770177863930E-03  1.804014559814003E-04
 8.475000000000E+02  5.534989231053468E-03  1.814793202671281E-04
 8.475200000000E+02  5.550296346320533E-03  1.825672843607151E-04
 8.475400000000E+02  5.565692384793886E-03  1.836654780620965E-04
 8.475600000000E+02  5.581178217941248E-03  1.847740332859671E-04
 8.475800000000E+02  5.596754727752036E-03  1.858930841037260E-04
 8.476000000000E+02  5.612422806923371E-03  1.870227667863972E-04
 8.476200000000E+02  5.628183359049524E-03  1.881632198485485E-04
 8.476400000000E+02  5.644037298814551E-03  1.893145840932526E-04
 8.476600000000E+02  5.659985552188424E-03  1.904770026580899E-04
 8.476800000000E+02  5.676029056626835E-03  1.916506210622471E-04
 8.477000000000E+02  5.692168761274556E-03  1.928355872547311E-04
 8.477200000000E+02  5.708405627172592E-03  1.940320516637264E-04
 8.477400000000E+02  5.724740627469086E-03  1.952401672471273E-04
 8.477600000000E+02  5.741174747634297E-03  1.964600895442888E-04
 8.477800000000E+02  5.757708985679696E-03  1.976919767290142E-04
 8.478000000000E+02  5.774344352380903E-03  1.989359896638216E-04
 8.478200000000E+02  5.791081871505196E-03  2.001922919555254E-04
 8.478400000000E+02  5.807922580043395E-03  2.014610500121686E-04
 8.478600000000E+02  5.824867528445949E-03  2.027424331013398E-04
 8.478800000000E+02  5.841917780863994E-03  2.040366134099207E-04
 8.479000000000E+02  5.859074415394828E-03  2.053437661053003E-04
 8.479200000000E+02  5.876338524332529E-03  2.066640693980950E-04
 8.479400000000E+02  5.893711214423217E-03  2.079977046064235E-04
 8.479600000000E+02  5.911193607125815E-03  2.093448562217787E-04
 8.479800000000E+02  5.928786838877645E-03  2.107057119765374E-04
 8.480000000000E+02  5.946492061365673E-03  2.120804629131593E-04
 8.480200000000E+02  5.964310441803316E-03  2.134693034551294E-04
 8.480400000000E+02  5.982243163212521E-03  2.148724314796773E-04
 8.480600000000E+02  6.000291424712131E-03  2.162900483923512E-04
 8.480800000000E+02  6.018456441811909E-03  2.177223592034667E-04
 8.481000000000E+02  6.036739446712730E-03  2.191695726065214E-04
 8.481200000000E+02  6.055141688613190E-03  2.206319010586050E-04
 8.481400000000E+02  6.073664434022374E-03  2.221095608628802E-04
 8.481600000000E+02  6.092308967079573E-03  2.236027722531822E-04
 8.481800000000E+02  6.111076589880488E-03  2.251117594808166E-04
 8.482000000000E+02  6.129968622810541E-03  2.266367509036081E-04
 8.482200000000E+02  6.148986404885365E-03  2.281779790772698E-04
 8.482400000000E+02  6.168131294098558E-03  2.297356808491623E-04
 8.482600000000E+02  6.187404667776918E-03  2.313100974545250E-04
 8.482800000000E+02  6.206807922943525E-03  2.329014746152364E-04
 8.483000000000E+02  6.226342476688793E-03  2.345100626411980E-04
 8.483200000000E+02  6.246009766549385E-03  2.361361165344049E-04
 8.483400000000E+02  6.265811250895812E-03  2.377798960958064E-04
 8.483600000000E+02  6.285748409328681E-03  2.394416660350133E-04
 8.483800000000E+02  6.305822743083291E-03  2.411216960829777E-04
 8.484000000000E+02  6.326035775443797E-03  2.428202611076951E-04
 8.484200000000E+02  6.346389052166473E-03  2.445376412330612E-04
 8.484400000000E+02  6.366884141912506E-03  2.462741219609514E-04
 8.484600000000E+02  6.387522636690715E-03  2.480299942966520E-04
 8.484800000000E+02  6.408306152310285E-03  2.498055548777151E-04
 8.485000000000E+02  6.429236328844016E-03  2.516011061063855E-04
 8.485200000000E+02  6.450314831101904E-03  2.534169562856744E-04
 8.485400000000E+02  6.471543349116142E-03  2.552534197592247E-04
 8.485600000000E+02  6.492923598636911E-03  2.571108170550735E-04
 8.485800000000E+02  6.514457321640162E-03  2.589894750334398E-04
 8.486000000000E+02  6.536146286846931E-03  2.608897270386749E-04
 8.486200000000E+02  6.557992290255130E-03  2.628119130555020E-04
 8.486400000000E+02  6.579997155683847E-03  2.647563798696820E-04
 8.486600000000E+02  6.602162735330443E-03  2.667234812332652E-04
 8.486800000000E+02  6.624490910341143E-03  2.687135780345582E-04
 8.487000000000E+02  6.646983591395240E-03  2.707270384729834E-04
 8.487200000000E+02  6.669642719303236E-03  2.727642382389692E-04
 8.487400000000E+02  6.692470265619612E-03  2.748255606990693E-04
 8.487600000000E+02  6.715468233270402E-03  2.769113970864435E-04
 8.487800000000E+02  6.738638657196123E-03  2.790221466969190E-04
 8.488000000000E+02  6.761983605010360E-03  2.811582170908081E-04
 8.488200000000E+02  6.785505177674707E-03  2.833200243006569E-04
 8.488400000000E+02  6.809205510190333E-03  2.855079930451470E-04
 8.488600000000E+02  6.833086772306739E-03  2.877225569493676E-04
 8.488800000000E+02  6.857151169248061E-03  2.899641587716509E-04
 8.489000000000E+02  6.881400942457984E-03  2.922332506372064E-04
 8.489200000000E+02  6.905838370362774E-03  2.945302942788074E-04
 8.489400000000E+02  6.930465769154306E-03  2.968557612847374E-04
