#Spectra: 1
Emin______Emax       8.427000000000000E+02  8.827000000000000E+02
EminPole__EmaxPole   8.535783026158567E+02  8.737176109304602E+02
dE________Gamma      2.000000000000000E-02  1.000000000000000E-01
Energy               Re[0]                  Im[0]                
 8.427000000000E+02  1.675147339603851E-03  5.485601616777965E-05
 8.427200000000E+02  1.781203544394192E-03  5.546029556826372E-05
 8.427400000000E+02  1.884163399592267E-03  5.605374164993549E-05
 8.427600000000E+02  1.982276729355128E-03  5.662926916178097E-05
 8.427800000000E+02  2.074317272180248E-03  5.718189770153643E-05
 8.428000000000E+02  2.159601076302490E-03  5.770882976224738E-05
 8.428200000000E+02  2.237914273576795E-03  5.820916267371221E-05
 8.428400000000E+02  2.309396726255248E-03  5.868342170047504E-05
 8.428600000000E+02  2.374421179277668E-03  5.913307415612683E-05
 8.428800000000E+02  2.433490947244832E-03  5.956011757222265E-05
 8.429000000000E+02  2.487164116909015E-03  5.996677430596805E-05
 8.429200000000E+02  2.536003020760565E-03  6.035528774400329E-05
 8.429400000000E+02  2.580543831561067E-03  6.072779946620566E-05
 8.429600000000E+02  2.621280499436076E-03  6.108628415827131E-05
 8.429800000000E+02  2.658658108014702E-03  6.143252247610366E-05
 8.430000000000E+02  2.693071980934200E-03  6.176809710172921E-05
 8.430200000000E+02  2.724870024424273E-03  6.209440187004948E-05
 8.430400000000E+02  2.754356685435561E-03  6.241265744007766E-05
 8.430600000000E+02  2.781797534941946E-03  6.272392951965176E-05
 8.430800000000E+02  2.807423904232151E-03  6.302914733571978E-05
 8.431000000000E+02  2.831437267278390E-03  6.332912111031012E-05
 8.431200000000E+02  2.854013224086179E-03  6.362455795411082E-05
 8.431400000000E+02  2.875305034724406E-03  6.391607597165302E-05
 8.431600000000E+02  2.895446706515344E-03  6.420421658502626E-05
 8.431800000000E+02  2.914555664061994E-03  6.448945519299132E-05
 8.432000000000E+02  2.932735043867639E-03  6.477221033135759E-05
 8.432200000000E+02  2.950075658765185E-03  6.505285151477228E-05
 8.432400000000E+02  2.966657676178397E-03  6.533170593555594E-05
 8.432600000000E+02  2.982552050739850E-03  6.560906418137650E-05
 8.432800000000E+02  2.997821747351144E-03  6.588518511590890E-05
 8.433000000000E+02  3.012522786153171E-03  6.616030004819456E-05
 8.433200000000E+02  3.026705136473924E-03  6.643461629887456E-05
 8.433400000000E+02  3.040413482828026E-03  6.670832025549159E-05
 8.433600000000E+02  3.053687882523068E-03  6.698157999501863E-05
 8.433800000000E+02  3.066564331384316E-03  6.725454753958835E-05
 8.434000000000E+02  3.079075251509463E-03  6.752736080101381E-05
 8.434200000000E+02  3.091249912763563E-03  6.780014526089439E-05
 8.434400000000E+02  3.103114797868875E-03  6.807301542566537E-05
 8.434600000000E+02  3.114693919387377E-03  6.834607608974824E-05
 8.434800000000E+02  3.126009095588786E-03  6.861942343472544E-05
 8.435000000000E+02  3.137080191105286E-03  6.889314598810833E-05
 8.435200000000E+02  3.147925327360489E-03  6.916732546160927E-05
 8.435400000000E+02  3.158561066995129E-03  6.944203748578216E-05
 8.435600000000E+02  3.169002575871604E-03  6.971735225532278E-05
 8.435800000000E+02  3.179263765702068E-03  6.999333509717965E-05
 8.436000000000E+02  3.189357419893080E-03  7.027004697183204E-05
 8.436200000000E+02  3.199295304820626E-03  7.054754491655345E-05
 8.436400000000E+02  3.209088268428778E-03  7.082588243822179E-05
 8.436600000000E+02  3.218746327775304E-03  7.110510986214461E-05
 8.436800000000E+02  3.228278746918910E-03  7.138527464247075E-05
 8.437000000000E+02  3.237694106348682E-03  7.166642163895376E-05
 8.437200000000E+02  3.247000364991958E-03  7.194859336422253E-05
 8.437400000000E+02  3.256204915696708E-03  7.223183020511114E-05
 8.437600000000E+02  3.265314634964203E-03  7.251617062114934E-05
 8.437800000000E+02  3.274335927606846E-03  7.280165132289342E-05
 8.438000000000E+02  3.283274766916932E-03  7.308830743244132E-05
 8.438200000000E+02  3.292136730858393E-03  7.337617262816184E-05
 8.438400000000E+02  3.300927034727613E-03  7.366527927541694E-05
 8.438600000000E+02  3.309650560674830E-03  7.395565854483835E-05
 8.438800000000E+02  3.318311884428533E-03  7.424734051951776E-05
 8.439000000000E+02  3.326915299524272E-03  7.454035429230932E-05
 8.439200000000E+02  3.335464839303074E-03  7.483472805430597E-05
 8.439400000000E+02  3.343964296912838E-03  7.513048917540867E-05
 8.439600000000E+02  3.352417243519515E-03  7.542766427781870E-05
 8.439800000000E+02  3.360827044910440E-03  7.572627930317487E-05
 8.440000000000E+02  3.369196876651802E-03  7.602635957397965E-05
 8.440200000000E+02  3.377529737943851E-03  7.632792984988607E-05
 8.440400000000E+02  3.385828464301541E-03  7.663101437935230E-05
 8.440600000000E+02  3.394095739174409E-03  7.693563694711755E-05
 8.440800000000E+02  3.402334104606952E-03  7.724182091790002E-05
 8.441000000000E+02  3.410545971030255E-03  7.754958927667749E-05
 8.441200000000E+02  3.418733626265812E-03  7.785896466587589E-05
 8.441400000000E+02  3.426899243813823E-03  7.816996941974582E-05
 8.441600000000E+02  3.435044890491654E-03  7.848262559619667E-05
 8.441800000000E+02  3.443172533480218E-03  7.879695500631059E-05
 8.442000000000E+02  3.451284046831211E-03  7.911297924175149E-05
 8.442200000000E+02  3.459381217482569E-03  7.943071970025294E-05
 8.442400000000E+02  3.467465750824573E-03  7.975019760935955E-05
 8.442600000000E+02  3.475539275855305E-03  8.007143404856849E-05
 8.442800000000E+02  3.483603349960228E-03  8.039444997001573E-05
 8.443000000000E+02  3.491659463347315E-03  8.071926621782658E-05
 8.443200000000E+02  3.499709043166441E-03  8.104590354625078E-05
 8.443400000000E+02  3.507753457338714E-03  8.137438263667668E-05
 8.443600000000E+02  3.515794018119376E-03  8.170472411362628E-05
 8.443800000000E+02  3.523831985415715E-03  8.203694855981050E-05
 8.444000000000E+02  3.531868569879156E-03  8.237107653032342E-05
 8.444200000000E+02  3.539904935789553E-03  8.270712856605015E-05
 8.444400000000E+02  3.547942203747686E-03  8.304512520634524E-05
 8.444600000000E+02  3.555981453190567E-03  8.338508700104508E-05
 8.444800000000E+02  3.564023724743356E-03  8.372703452187160E-05
 8.445000000000E+02  3.572070022419964E-03  8.407098837326603E-05
 8.445200000000E+02  3.580121315683467E-03  8.441696920270918E-05
 8.445400000000E+02  3.588178541377145E-03  8.476499771056179E-05
 8.445600000000E+02  3.596242605535213E-03  8.511509465946629E-05
 8.445800000000E+02  3.604314385081950E-03  8.546728088334658E-05
 8.446000000000E+02  3.612394729427523E-03  8.582157729603048E-05
 8.446200000000E+02  3.620484461967492E-03  8.617800489953695E-05
 8.446400000000E+02  3.628584381493032E-03  8.653658479204024E-05
 8.446600000000E+02  3.636695263517872E-03  8.689733817555033E-05
 8.446800000000E+02  3.644817861527937E-03  8.726028636332455E-05
 8.447000000000E+02  3.652952908158697E-03  8.762545078703094E-05
 8.447200000000E+02  3.661101116305361E-03  8.799285300369338E-05
 8.447400000000E+02  3.669263180170426E-03  8.836251470242225E-05
 8.447600000000E+02  3.677439776252366E-03  8.873445771096042E-05
 8.447800000000E+02  3.685631564280011E-03  8.910870400205553E-05
 8.448000000000E+02  3.693839188095469E-03  8.948527569966967E-05
 8.448200000000E+02  3.702063276489523E-03  8.986419508504818E-05
 8.448400000000E+02  3.710304443992092E-03  9.024548460265464E-05
 8.448600000000E+02  3.718563291620917E-03  9.062916686598518E-05
 8.448800000000E+02  3.726840407591016E-03  9.101526466327417E-05
 8.449000000000E+02  3.735136367987423E-03  9.140380096310302E-05
 8.449200000000E+02  3.743451737403258E-03  9.179479891991657E-05
 8.449400000000E+02  3.751787069545769E-03  9.218828187946486E-05
 8.449600000000E+02  3.760142907811720E-03  9.258427338417124E-05
 8.449800000000E+02  3.768519785834433E-03  9.298279717843628E-05
 8.450000000000E+02  3.776918228003976E-03  9.338387721389108E-05
 8.450200000000E+02  3.785338749962187E-03  9.378753765460016E-05
 8.450400000000E+02  3.793781859074046E-03  9.419380288222183E-05
 8.450600000000E+02  3.802248054876633E-03  9.460269750113771E-05
 8.450800000000E+02  3.810737829507324E-03  9.501424634355137E-05
 8.451000000000E+02  3.819251668112028E-03  9.542847447456457E-05
 8.451200000000E+02  3.827790049234908E-03  9.584540719723630E-05
 8.451400000000E+02  3.836353445190589E-03  9.626507005763199E-05
 8.451600000000E+02  3.844942322419752E-03  9.668748884986250E-05
 8.451800000000E+02  3.853557141829243E-03  9.711268962112114E-05
 8.452000000000E+02  3.862198359117345E-03  9.754069867672787E-05
 8.452200000000E+02  3.870866425085270E-03  9.797154258517308E-05
 8.452400000000E+02  3.879561785935471E-03  9.840524818317679E-05
 8.452600000000E+02  3.888284883557609E-03  9.884184258076293E-05
 8.452800000000E+02  3.897036155802874E-03  9.928135316634900E-05
 8.453000000000E+02  3.905816036747099E-03  9.972380761186106E-05
 8.453200000000E+02  3.914624956943598E-03  1.001692338778734E-04
 8.453400000000E+02  3.923463343666020E-03  1.006176602187786E-04
 8.453600000000E+02  3.932331621142041E-03  1.010691151879903E-04
 8.453800000000E+02  3.941230210777818E-03  1.015236276431809E-04
 8.454000000000E+02  3.950159531374653E-03  1.019812267515605E-04
 8.454200000000E+02  3.959119999337298E-03  1.024419419951957E-04
 8.454400000000E+02  3.968112028874933E-03  1.029058031763788E-04
 8.454600000000E+02  3.977136032195087E-03  1.033728404230390E-04
 8.454800000000E+02  3.986192419690928E-03  1.038430841942110E-04
 8.455000000000E+02  3.995281600121899E-03  1.043165652855533E-04
 8.455200000000E+02  4.004403980788811E-03  1.047933148349273E-04
 8.455400000000E+02  4.013559967702840E-03  1.052733643280347E-04
 8.455600000000E+02  4.022749965749324E-03  1.057567456041160E-04
 8.455800000000E+02  4.031974378846400E-03  1.062434908617177E-04
 8.456000000000E+02  4.041233610098970E-03  1.067336326645263E-04
 8.456200000000E+02  4.050528061947840E-03  1.072272039472707E-04
 8.456400000000E+02  4.059858136314667E-03  1.077242380217036E-04
 8.456600000000E+02  4.069224234742834E-03  1.082247685826530E-04
 8.456800000000E+02  4.078626758534508E-03  1.087288297141566E-04
 8.457000000000E+02  4.088066108883749E-03  1.092364558956759E-04
 8.457200000000E+02  4.097542687006469E-03  1.097476820083956E-04
 8.457400000000E+02  4.107056894266946E-03  1.102625433416085E-04
 8.457600000000E+02  4.116609132301352E-03  1.107810755991901E-04
 8.457800000000E+02  4.126199803138083E-03  1.113033149061666E-04
 8.458000000000E+02  4.135829309315681E-03  1.118292978153760E-04
 8.458200000000E+02  4.145498053997784E-03  1.123590613142281E-04
 8.458400000000E+02  4.155206441086111E-03  1.128926428315619E-04
 8.458600000000E+02  4.164954875330449E-03  1.134300802446118E-04
 8.458800000000E+02  4.174743762437043E-03  1.139714118860717E-04
 8.459000000000E+02  4.184573509174505E-03  1.145166765512752E-04
 8.459200000000E+02  4.194444523478236E-03  1.150659135054803E-04
 8.459400000000E+02  4.204357214552398E-03  1.156191624912751E-04
 8.459600000000E+02  4.214311992970915E-03  1.161764637360931E-04
 8.459800000000E+02  4.224309270776250E-03  1.167378579598560E-04
 8.460000000000E+02  4.234349461576937E-03  1.173033863827331E-04
 8.460200000000E+02  4.244432980643893E-03  1.178730907330312E-04
 8.460400000000E+02  4.254560245005056E-03  1.184470132552102E-04
 8.460600000000E+02  4.264731673539087E-03  1.190251967180347E-04
 8.460800000000E+02  4.274947687067974E-03  1.196076844228544E-04
 8.461000000000E+02  4.285208708448153E-03  1.201945202120306E-04
 8.461200000000E+02  4.295515162661404E-03  1.207857484775008E-04
 8.461400000000E+02  4.305867476904255E-03  1.213814141694850E-04
 8.461600000000E+02  4.316266080676776E-03  1.219815628053474E-04
 8.461800000000E+02  4.326711405870775E-03  1.225862404786041E-04
 8.462000000000E+02  4.337203886857211E-03  1.231954938680882E-04
 8.462200000000E+02  4.347743960572891E-03  1.238093702472755E-04
 8.462400000000E+02  4.358332066607024E-03  1.244279174937695E-04
 8.462600000000E+02  4.368968647286867E-03  1.250511840989537E-04
 8.462800000000E+02  4.379654147763245E-03  1.256792191778165E-04
 8.463000000000E+02  4.390389016095666E-03  1.263120724789475E-04
 8.463200000000E+02  4.401173703337161E-03  1.269497943947090E-04
 8.463400000000E+02  4.412008663618926E-03  1.275924359715945E-04
 8.463600000000E+02  4.422894354234670E-03  1.282400489207723E-04
 8.463800000000E+02  4.433831235724998E-03  1.288926856288141E-04
 8.464000000000E+02  4.444819771961693E-03  1.295503991686245E-04
 8.464200000000E+02  4.455860430231946E-03  1.302132433105658E-04
 8.464400000000E+02  4.466953681322677E-03  1.308812725337862E-04
 8.464600000000E+02  4.478099999604874E-03  1.315545420377556E-04
 8.464800000000E+02  4.489299863118163E-03  1.322331077540164E-04
 8.465000000000E+02  4.500553753655477E-03  1.329170263581492E-04
 8.465200000000E+02  4.511862156847981E-03  1.336063552819583E-04
 8.465400000000E+02  4.523225562250419E-03  1.343011527258926E-04
 8.465600000000E+02  4.534644463426476E-03  1.350014776716903E-04
 8.465800000000E+02  4.546119358034785E-03  1.357073898952621E-04
 8.466000000000E+02  4.557650747915239E-03  1.364189499798252E-04
 8.466200000000E+02  4.569239139175658E-03  1.371362193292750E-04
 8.466400000000E+02  4.580885042279218E-03  1.378592601818184E-04
 8.466600000000E+02  4.592588972132177E-03  1.385881356238656E-04
 8.466800000000E+02  4.604351448172218E-03  1.393229096041787E-04
 8.467000000000E+02  4.616172994457417E-03  1.400636469483129E-04
 8.467200000000E+02  4.628054139756048E-03  1.408104133733081E-04
 8.467400000000E+02  4.639995417636899E-03  1.415632755026894E-04
 8.467600000000E+02  4.651997366560297E-03  1.423223008817434E-04
 8.467800000000E+02  4.664060529970116E-03  1.430875579930971E-04
 8.468000000000E+02  4.676185456386444E-03  1.438591162725976E-04
 8.468200000000E+02  4.688372699499133E-03  1.446370461255113E-04
 8.468400000000E+02  4.700622818262464E-03  1.454214189430320E-04
 8.468600000000E+02  4.712936376990360E-03  1.462123071191185E-04
 8.468800000000E+02  4.725313945452976E-03  1.470097840676668E-04
 8.469000000000E+02  4.737756098974122E-03  1.478139242400202E-04
 8.469200000000E+02  4.750263418529751E-03  1.486248031428334E-04
 8.469400000000E+02  4.762836490847648E-03  1.494424973562866E-04
 8.469600000000E+02  4.775475908508110E-03  1.502670845526679E-04
 8.469800000000E+02  4.788182270046083E-03  1.510986435153374E-04
 8.470000000000E+02  4.800956180054273E-03  1.519372541580557E-04
 8.470200000000E+02  4.813798249287553E-03  1.527829975447257E-04
 8.470400000000E+02  4.826709094769039E-03  1.536359559095173E-04
 8.470600000000E+02  4.839689339896860E-03  1.544962126774139E-04
 8.470800000000E+02  4.852739614553116E-03  1.553638524851725E-04
 8.471000000000E+02  4.865860555213635E-03  1.562389612027180E-04
 8.471200000000E+02  4.879052805059497E-03  1.571216259549748E-04
 8.471400000000E+02  4.892317014090277E-03  1.580119351441510E-04
 8.471600000000E+02  4.905653839238367E-03  1.589099784724844E-04
 8.471800000000E+02  4.919063944485423E-03  1.598158469654579E-04
 8.472000000000E+02  4.932548000980187E-03  1.607296329955051E-04
 8.472200000000E+02  4.946106687158233E-03  1.616514303062032E-04
 8.472400000000E+02  4.959740688863209E-03  1.625813340369826E-04
 8.472600000000E+02  4.973450699470148E-03  1.635194407483526E-04
 8.472800000000E+02  4.987237420010602E-03  1.644658484476538E-04
 8.473000000000E+02  5.001101559299399E-03  1.654206566153695E-04
 8.473200000000E+02  5.015043834063941E-03  1.663839662319849E-04
 8.473400000000E+02  5.029064969074854E-03  1.673558798054218E-04
 8.473600000000E+02  5.043165697279242E-03  1.683365013990639E-04
 8.473800000000E+02  5.057346759935729E-03  1.693259366603831E-04
 8.474000000000E+02  5.071608906751912E-03  1.703242928501733E-04
 8.474200000000E+02  5.085952896023693E-03  1.713316788724287E-04
 8.474400000000E+02  5.100379494777516E-03  1.723482053048635E-04
 8.474600000000E+02  5.114889478914182E-03  1.733739844300918E-04
 8.474800000000E+02  5.129483633355711E-03  1.744091302674925E-04
 8.475000000000E+02  5.144162752194250E-03  1.754537586057744E-04
 8.475200000000E+02  5.158927638843848E-03  1.765079870362457E-04
 8.475400000000E+02  5.173779106194500E-03  1.775719349868298E-04
 8.475600000000E+02  5.188717976768962E-03  1.786457237568208E-04
 8.475800000000E+02  5.203745082882431E-03  1.797294765524194E-04
 8.476000000000E+02  5.218861266804815E-03  1.808233185230523E-04
 8.476200000000E+02  5.234067380925887E-03  1.819273767985075E-04
 8.476400000000E+02  5.249364287923426E-03  1.830417805269004E-04
 8.476600000000E+02  5.264752860934405E-03  1.841666609134871E-04
 8.476800000000E+02  5.280233983729002E-03  1.853021512603656E-04
 8.477000000000E+02  5.295808550887975E-03  1.864483870070588E-04
 8.477200000000E+02  5.311477467983253E-03  1.876055057720346E-04
 8.477400000000E+02  5.327241651761684E-03  1.887736473951592E-04
 8.477600000000E+02  5.343102030332171E-03  1.899529539811297E-04
 8.477800000000E+02  5.359059543356506E-03  1.911435699438975E-04
 8.478000000000E+02  5.375115142243320E-03  1.923456420521129E-04
 8.478200000000E+02  5.391269790346070E-03  1.935593194756241E-04
 8.478400000000E+02  5.407524463164524E-03  1.947847538330474E-04
 8.478600000000E+02  5.423880148550032E-03  1.960220992404508E-04
 8.478800000000E+02  5.440337846914774E-03  1.972715123611628E-04
 8.479000000000E+02  5.456898571444987E-03  1.985331524567558E-04
 8.479200000000E+02  5.473563348318312E-03  1.998071814392223E-04
 8.479400000000E+02  5.490333216925131E-03  2.010937639243846E-04
 8.479600000000E+02  5.507209230094491E-03  2.023930672865615E-04
 8.479800000000E+02  5.524192454324193E-03  2.037052617145386E-04
 8.480000000000E+02  5.541283970015438E-03  2.050305202688692E-04
 8.480200000000E+02  5.558484871712246E-03  2.063690189405419E-04
 8.480400000000E+02  5.575796268345112E-03  2.077209367110620E-04
 8.480600000000E+02  5.593219283480356E-03  2.090864556139662E-04
 8.480800000000E+02  5.610755055573359E-03  2.104657607978436E-04
 8.481000000000E+02  5.628404738227896E-03  2.118590405908611E-04
 8.481200000000E+02  5.646169500459902E-03  2.132664865668734E-04
 8.481400000000E+02  5.664050526967035E-03  2.146882936131441E-04
 8.481600000000E+02  5.682049018403514E-03  2.161246599997244E-04
 8.481800000000E+02  5.700166191660622E-03  2.175757874505347E-04
 8.482000000000E+02  5.718403280152831E-03  2.190418812162066E-04
 8.482200000000E+02  5.736761534110020E-03  2.205231501487248E-04
 8.482400000000E+02  5.755242220875588E-03  2.220198067779254E-04
 8.482600000000E+02  5.773846625210659E-03  2.235320673899022E-04
 8.482800000000E+02  5.792576049604916E-03  2.250601521073765E-04
 8.483000000000E+02  5.811431814593638E-03  2.266042849720866E-04
 8.483200000000E+02  5.830415259081527E-03  2.281646940292572E-04
 8.483400000000E+02  5.849527740673368E-03  2.297416114142022E-04
 8.483600000000E+02  5.868770636011735E-03  2.313352734411346E-04
 8.483800000000E+02  5.888145341121781E-03  2.329459206942393E-04
 8.484000000000E+02  5.907653271763422E-03  2.345737981210707E-04
 8.484200000000E+02  5.927295863791131E-03  2.362191551283635E-04
 8.484400000000E+02  5.947074573521555E-03  2.378822456803051E-04
 8.484600000000E+02  5.966990878108739E-03  2.395633283993541E-04
 8.484800000000E+02  5.987046275928040E-03  2.412626666696805E-04
 8.485000000000E+02  6.007242286967927E-03  2.429805287433060E-04
 8.485200000000E+02  6.027580453230595E-03  2.447171878490198E-04
 8.485400000000E+02  6.048062339141486E-03  2.464729223041624E-04
 8.485600000000E+02  6.068689531967613E-03  2.482480156293574E-04
 8.485800000000E+02  6.089463642245247E-03  2.500427566662818E-04
 8.486000000000E+02  6.110386304217378E-03  2.518574396985675E-04
 8.486200000000E+02  6.131459176280519E-03  2.536923645759389E-04
 8.486400000000E+02  6.152683941441877E-03  2.555478368416700E-04
